[Measurement conditions]
Sample identification,
Comment - 1,"Configuration=HTK 1200N "Ramp", Owner=User-1, Creation date=8/23/2013 9:15:11 AM"
Comment - 2,"Goniometer=Theta/Theta; Minimum step size 2Theta:0.0001; Minimum step size Omega:0.0001"
Comment - 3,"Sample stage=AP HTK-1200N oven with z-axis; Minimum step size Z:0.001"
Comment - 4,"Diffractometer system=EMPYREAN"
Comment - 5,"Measurement program=C:\PANalytical\Data Collector\Programs\Leah Bellcase\REU\Single scan HTK1200.xrdmp, Identifier={110638C9-263E-4C8D-8D94-CB0D50489C22}"
Comment - 6,"Batch program=C:\PANalytical\Data Collector\Programs\Leah Bellcase\REU\Non-ambient Program.xrdmp, Identifier={9A751AF7-7BF6-49D9-BB64-9CD4C1671986}"
Comment - 7,""
Anode material,Cu
K-Alpha1 wavelength,1.5405980
K-Alpha2 wavelength,1.5444260
Ratio K-Alpha2/K-Alpha1,0.500
Divergence slit,Fixed,0.250
Receiving slit,0.10
Monochromator used,NO
Generator voltage, 45
Tube current, 40
File date and time,10/Jan/2022 10:32
Unit cell,
h k l, 0 0 0
Temperature [K],300
Scan axis,Gonio
Scan range,10.0005,79.9925
Scan step size,0.0130000
No. of points, 5384
Scan type,CONTINUOUS
Time per step,1.020
[Scan points]
Angle,Intensity
10.0070,54.0
10.0200,52.0
10.0330,48.0
10.0460,63.0
10.0590,55.0
10.0720,56.0
10.0850,39.0
10.0980,45.0
10.1110,54.0
10.1240,50.0
10.1370,48.0
10.1500,44.0
10.1630,53.0
10.1760,44.0
10.1890,42.0
10.2020,54.0
10.2150,46.0
10.2280,50.0
10.2410,44.0
10.2540,56.0
10.2670,55.0
10.2800,60.0
10.2930,58.0
10.3060,40.0
10.3190,50.0
10.3320,49.0
10.3450,46.0
10.3580,58.0
10.3710,61.0
10.3840,52.0
10.3970,54.0
10.4100,59.0
10.4230,66.0
10.4360,59.0
10.4490,57.0
10.4620,62.0
10.4750,60.0
10.4880,48.0
10.5010,50.0
10.5140,45.0
10.5270,40.0
10.5400,46.0
10.5530,49.0
10.5660,47.0
10.5790,44.0
10.5920,50.0
10.6050,53.0
10.6180,50.0
10.6310,55.0
10.6440,52.0
10.6570,55.0
10.6700,54.0
10.6830,43.0
10.6960,46.0
10.7090,49.0
10.7220,45.0
10.7350,45.0
10.7480,46.0
10.7610,47.0
10.7740,54.0
10.7870,49.0
10.8000,48.0
10.8130,53.0
10.8260,51.0
10.8390,43.0
10.8520,38.0
10.8650,48.0
10.8780,58.0
10.8910,60.0
10.9040,54.0
10.9170,58.0
10.9300,48.0
10.9430,54.0
10.9560,46.0
10.9690,49.0
10.9820,49.0
10.9950,47.0
11.0080,56.0
11.0210,61.0
11.0340,56.0
11.0470,52.0
11.0600,42.0
11.0730,48.0
11.0860,46.0
11.0990,48.0
11.1120,50.0
11.1250,45.0
11.1380,51.0
11.1510,49.0
11.1640,55.0
11.1770,38.0
11.1900,44.0
11.2030,52.0
11.2160,42.0
11.2290,47.0
11.2420,38.0
11.2550,38.0
11.2680,57.0
11.2810,46.0
11.2940,64.0
11.3070,64.0
11.3200,70.0
11.3330,50.0
11.3460,50.0
11.3590,53.0
11.3720,45.0
11.3850,51.0
11.3980,49.0
11.4110,48.0
11.4240,47.0
11.4370,49.0
11.4500,49.0
11.4630,54.0
11.4760,39.0
11.4890,40.0
11.5020,49.0
11.5150,54.0
11.5280,52.0
11.5410,40.0
11.5540,40.0
11.5670,47.0
11.5800,50.0
11.5930,53.0
11.6060,52.0
11.6190,54.0
11.6320,56.0
11.6450,49.0
11.6580,50.0
11.6710,58.0
11.6840,61.0
11.6970,53.0
11.7100,51.0
11.7230,49.0
11.7360,49.0
11.7490,55.0
11.7620,49.0
11.7750,46.0
11.7880,56.0
11.8010,51.0
11.8140,47.0
11.8270,53.0
11.8400,46.0
11.8530,51.0
11.8660,61.0
11.8790,55.0
11.8920,56.0
11.9050,48.0
11.9180,37.0
11.9310,42.0
11.9440,44.0
11.9570,52.0
11.9700,56.0
11.9830,52.0
11.9960,57.0
12.0090,54.0
12.0220,50.0
12.0350,55.0
12.0480,51.0
12.0610,47.0
12.0740,51.0
12.0870,46.0
12.1000,43.0
12.1130,54.0
12.1260,54.0
12.1390,44.0
12.1520,45.0
12.1650,48.0
12.1780,53.0
12.1910,44.0
12.2040,50.0
12.2170,53.0
12.2300,61.0
12.2430,60.0
12.2560,57.0
12.2690,51.0
12.2820,39.0
12.2950,51.0
12.3080,39.0
12.3210,36.0
12.3340,44.0
12.3470,40.0
12.3600,49.0
12.3730,53.0
12.3860,62.0
12.3990,71.0
12.4120,53.0
12.4250,49.0
12.4380,45.0
12.4510,44.0
12.4640,59.0
12.4770,67.0
12.4900,35.0
12.5030,41.0
12.5160,44.0
12.5290,49.0
12.5420,49.0
12.5550,44.0
12.5680,53.0
12.5810,51.0
12.5940,37.0
12.6070,45.0
12.6200,48.0
12.6330,46.0
12.6460,42.0
12.6590,54.0
12.6720,44.0
12.6850,54.0
12.6980,57.0
12.7110,61.0
12.7240,52.0
12.7370,56.0
12.7500,41.0
12.7630,32.0
12.7760,51.0
12.7890,61.0
12.8020,55.0
12.8150,48.0
12.8280,39.0
12.8410,43.0
12.8540,33.0
12.8670,56.0
12.8800,50.0
12.8930,37.0
12.9060,48.0
12.9190,62.0
12.9320,48.0
12.9450,47.0
12.9580,50.0
12.9710,44.0
12.9840,43.0
12.9970,41.0
13.0100,44.0
13.0230,51.0
13.0360,51.0
13.0490,43.0
13.0620,45.0
13.0750,51.0
13.0880,46.0
13.1010,44.0
13.1140,45.0
13.1270,41.0
13.1400,49.0
13.1530,52.0
13.1660,47.0
13.1790,50.0
13.1920,58.0
13.2050,50.0
13.2180,46.0
13.2310,48.0
13.2440,49.0
13.2570,54.0
13.2700,57.0
13.2830,52.0
13.2960,44.0
13.3090,44.0
13.3220,49.0
13.3350,45.0
13.3480,43.0
13.3610,47.0
13.3740,49.0
13.3870,50.0
13.4000,44.0
13.4130,46.0
13.4260,55.0
13.4390,56.0
13.4520,48.0
13.4650,45.0
13.4780,50.0
13.4910,45.0
13.5040,49.0
13.5170,46.0
13.5300,43.0
13.5430,47.0
13.5560,64.0
13.5690,55.0
13.5820,54.0
13.5950,42.0
13.6080,46.0
13.6210,48.0
13.6340,40.0
13.6470,40.0
13.6600,48.0
13.6730,52.0
13.6860,43.0
13.6990,44.0
13.7120,46.0
13.7250,53.0
13.7380,52.0
13.7510,57.0
13.7640,53.0
13.7770,49.0
13.7900,51.0
13.8030,40.0
13.8160,47.0
13.8290,44.0
13.8420,40.0
13.8550,48.0
13.8680,59.0
13.8810,44.0
13.8940,48.0
13.9070,37.0
13.9200,36.0
13.9330,43.0
13.9460,45.0
13.9590,40.0
13.9720,44.0
13.9850,48.0
13.9980,41.0
14.0110,44.0
14.0240,48.0
14.0370,44.0
14.0500,33.0
14.0630,40.0
14.0760,40.0
14.0890,53.0
14.1020,59.0
14.1150,39.0
14.1280,39.0
14.1410,45.0
14.1540,45.0
14.1670,56.0
14.1800,44.0
14.1930,47.0
14.2060,42.0
14.2190,40.0
14.2320,45.0
14.2450,39.0
14.2580,36.0
14.2710,39.0
14.2840,53.0
14.2970,49.0
14.3100,41.0
14.3230,48.0
14.3360,49.0
14.3490,54.0
14.3620,50.0
14.3750,43.0
14.3880,45.0
14.4010,50.0
14.4140,45.0
14.4270,37.0
14.4400,45.0
14.4530,45.0
14.4660,42.0
14.4790,40.0
14.4920,44.0
14.5050,45.0
14.5180,38.0
14.5310,38.0
14.5440,42.0
14.5570,41.0
14.5700,47.0
14.5830,46.0
14.5960,41.0
14.6090,43.0
14.6220,40.0
14.6350,41.0
14.6480,44.0
14.6610,37.0
14.6740,31.0
14.6870,40.0
14.7000,45.0
14.7130,41.0
14.7260,37.0
14.7390,42.0
14.7520,46.0
14.7650,42.0
14.7780,48.0
14.7910,49.0
14.8040,43.0
14.8170,51.0
14.8300,41.0
14.8430,38.0
14.8560,39.0
14.8690,48.0
14.8820,49.0
14.8950,57.0
14.9080,56.0
14.9210,41.0
14.9340,36.0
14.9470,36.0
14.9600,44.0
14.9730,48.0
14.9860,47.0
14.9990,42.0
15.0120,30.0
15.0250,38.0
15.0380,45.0
15.0510,52.0
15.0640,48.0
15.0770,41.0
15.0900,28.0
15.1030,45.0
15.1160,40.0
15.1290,39.0
15.1420,46.0
15.1550,50.0
15.1680,52.0
15.1810,47.0
15.1940,33.0
15.2070,38.0
15.2200,55.0
15.2330,56.0
15.2460,47.0
15.2590,43.0
15.2720,33.0
15.2850,34.0
15.2980,27.0
15.3110,32.0
15.3240,39.0
15.3370,32.0
15.3500,49.0
15.3630,54.0
15.3760,41.0
15.3890,36.0
15.4020,39.0
15.4150,33.0
15.4280,38.0
15.4410,38.0
15.4540,31.0
15.4670,38.0
15.4800,41.0
15.4930,46.0
15.5060,54.0
15.5190,46.0
15.5320,38.0
15.5450,38.0
15.5580,43.0
15.5710,42.0
15.5840,50.0
15.5970,41.0
15.6100,40.0
15.6230,47.0
15.6360,38.0
15.6490,42.0
15.6620,41.0
15.6750,39.0
15.6880,47.0
15.7010,50.0
15.7140,45.0
15.7270,39.0
15.7400,38.0
15.7530,37.0
15.7660,43.0
15.7790,46.0
15.7920,41.0
15.8050,37.0
15.8180,42.0
15.8310,41.0
15.8440,36.0
15.8570,36.0
15.8700,38.0
15.8830,40.0
15.8960,35.0
15.9090,38.0
15.9220,41.0
15.9350,36.0
15.9480,38.0
15.9610,42.0
15.9740,47.0
15.9870,47.0
16.0000,44.0
16.0130,43.0
16.0260,44.0
16.0390,37.0
16.0520,36.0
16.0650,38.0
16.0780,44.0
16.0910,45.0
16.1040,45.0
16.1170,47.0
16.1300,33.0
16.1430,36.0
16.1560,37.0
16.1690,39.0
16.1820,48.0
16.1950,51.0
16.2080,41.0
16.2210,42.0
16.2340,42.0
16.2470,39.0
16.2600,37.0
16.2730,38.0
16.2860,38.0
16.2990,44.0
16.3120,43.0
16.3250,35.0
16.3380,33.0
16.3510,50.0
16.3640,33.0
16.3770,33.0
16.3900,38.0
16.4030,49.0
16.4160,40.0
16.4290,44.0
16.4420,30.0
16.4550,41.0
16.4680,32.0
16.4810,36.0
16.4940,33.0
16.5070,46.0
16.5200,44.0
16.5330,48.0
16.5460,51.0
16.5590,41.0
16.5720,51.0
16.5850,48.0
16.5980,40.0
16.6110,43.0
16.6240,41.0
16.6370,54.0
16.6500,47.0
16.6630,31.0
16.6760,32.0
16.6890,39.0
16.7020,50.0
16.7150,43.0
16.7280,28.0
16.7410,39.0
16.7540,45.0
16.7670,33.0
16.7800,42.0
16.7930,44.0
16.8060,45.0
16.8190,47.0
16.8320,46.0
16.8450,44.0
16.8580,41.0
16.8710,46.0
16.8840,46.0
16.8970,40.0
16.9100,34.0
16.9230,34.0
16.9360,38.0
16.9490,43.0
16.9620,44.0
16.9750,42.0
16.9880,38.0
17.0010,42.0
17.0140,39.0
17.0270,33.0
17.0400,33.0
17.0530,35.0
17.0660,32.0
17.0790,35.0
17.0920,35.0
17.1050,35.0
17.1180,33.0
17.1310,41.0
17.1440,43.0
17.1570,40.0
17.1700,44.0
17.1830,45.0
17.1960,42.0
17.2090,48.0
17.2220,50.0
17.2350,41.0
17.2480,38.0
17.2610,44.0
17.2740,43.0
17.2870,36.0
17.3000,34.0
17.3130,31.0
17.3260,39.0
17.3390,43.0
17.3520,38.0
17.3650,37.0
17.3780,33.0
17.3910,32.0
17.4040,36.0
17.4170,43.0
17.4300,45.0
17.4430,39.0
17.4560,36.0
17.4690,33.0
17.4820,38.0
17.4950,36.0
17.5080,40.0
17.5210,40.0
17.5340,42.0
17.5470,43.0
17.5600,40.0
17.5730,41.0
17.5860,47.0
17.5990,33.0
17.6120,39.0
17.6250,38.0
17.6380,33.0
17.6510,39.0
17.6640,37.0
17.6770,41.0
17.6900,29.0
17.7030,32.0
17.7160,33.0
17.7290,29.0
17.7420,36.0
17.7550,45.0
17.7680,39.0
17.7810,32.0
17.7940,39.0
17.8070,43.0
17.8200,29.0
17.8330,36.0
17.8460,32.0
17.8590,34.0
17.8720,30.0
17.8850,32.0
17.8980,29.0
17.9110,36.0
17.9240,28.0
17.9370,42.0
17.9500,32.0
17.9630,39.0
17.9760,36.0
17.9890,34.0
18.0020,27.0
18.0150,31.0
18.0280,36.0
18.0410,36.0
18.0540,37.0
18.0670,36.0
18.0800,32.0
18.0930,37.0
18.1060,39.0
18.1190,41.0
18.1320,42.0
18.1450,36.0
18.1580,29.0
18.1710,28.0
18.1840,30.0
18.1970,37.0
18.2100,29.0
18.2230,28.0
18.2360,31.0
18.2490,34.0
18.2620,36.0
18.2750,35.0
18.2880,38.0
18.3010,49.0
18.3140,49.0
18.3270,39.0
18.3400,37.0
18.3530,38.0
18.3660,33.0
18.3790,32.0
18.3920,36.0
18.4050,38.0
18.4180,41.0
18.4310,39.0
18.4440,32.0
18.4570,32.0
18.4700,32.0
18.4830,32.0
18.4960,27.0
18.5090,29.0
18.5220,30.0
18.5350,24.0
18.5480,31.0
18.5610,41.0
18.5740,40.0
18.5870,33.0
18.6000,32.0
18.6130,33.0
18.6260,38.0
18.6390,39.0
18.6520,34.0
18.6650,28.0
18.6780,34.0
18.6910,34.0
18.7040,36.0
18.7170,39.0
18.7300,40.0
18.7430,33.0
18.7560,38.0
18.7690,46.0
18.7820,41.0
18.7950,33.0
18.8080,36.0
18.8210,38.0
18.8340,40.0
18.8470,37.0
18.8600,37.0
18.8730,41.0
18.8860,38.0
18.8990,34.0
18.9120,28.0
18.9250,33.0
18.9380,28.0
18.9510,35.0
18.9640,34.0
18.9770,32.0
18.9900,28.0
19.0030,33.0
19.0160,44.0
19.0290,37.0
19.0420,36.0
19.0550,40.0
19.0680,33.0
19.0810,32.0
19.0940,36.0
19.1070,37.0
19.1200,37.0
19.1330,43.0
19.1460,42.0
19.1590,38.0
19.1720,40.0
19.1850,34.0
19.1980,38.0
19.2110,37.0
19.2240,33.0
19.2370,34.0
19.2500,43.0
19.2630,30.0
19.2760,27.0
19.2890,40.0
19.3020,36.0
19.3150,39.0
19.3280,45.0
19.3410,33.0
19.3540,33.0
19.3670,36.0
19.3800,42.0
19.3930,36.0
19.4060,36.0
19.4190,31.0
19.4320,32.0
19.4450,29.0
19.4580,29.0
19.4710,29.0
19.4840,27.0
19.4970,41.0
19.5100,38.0
19.5230,34.0
19.5360,32.0
19.5490,31.0
19.5620,30.0
19.5750,34.0
19.5880,38.0
19.6010,34.0
19.6140,32.0
19.6270,46.0
19.6400,40.0
19.6530,37.0
19.6660,35.0
19.6790,39.0
19.6920,39.0
19.7050,30.0
19.7180,27.0
19.7310,32.0
19.7440,35.0
19.7570,27.0
19.7700,28.0
19.7830,32.0
19.7960,33.0
19.8090,39.0
19.8220,34.0
19.8350,29.0
19.8480,27.0
19.8610,31.0
19.8740,36.0
19.8870,40.0
19.9000,39.0
19.9130,28.0
19.9260,31.0
19.9390,31.0
19.9520,34.0
19.9650,42.0
19.9780,44.0
19.9910,34.0
20.0040,32.0
20.0170,36.0
20.0300,32.0
20.0430,38.0
20.0560,32.0
20.0690,30.0
20.0820,38.0
20.0950,45.0
20.1080,43.0
20.1210,32.0
20.1340,38.0
20.1470,41.0
20.1600,40.0
20.1730,33.0
20.1860,39.0
20.1990,42.0
20.2120,34.0
20.2250,36.0
20.2380,33.0
20.2510,29.0
20.2640,29.0
20.2770,39.0
20.2900,40.0
20.3030,28.0
20.3160,34.0
20.3290,33.0
20.3420,38.0
20.3550,42.0
20.3680,32.0
20.3810,37.0
20.3940,42.0
20.4070,27.0
20.4200,32.0
20.4330,20.0
20.4460,34.0
20.4590,30.0
20.4720,46.0
20.4850,36.0
20.4980,36.0
20.5110,33.0
20.5240,37.0
20.5370,32.0
20.5500,40.0
20.5630,48.0
20.5760,31.0
20.5890,33.0
20.6020,29.0
20.6150,26.0
20.6280,22.0
20.6410,26.0
20.6540,30.0
20.6670,39.0
20.6800,51.0
20.6930,38.0
20.7060,31.0
20.7190,31.0
20.7320,41.0
20.7450,40.0
20.7580,31.0
20.7710,28.0
20.7840,34.0
20.7970,34.0
20.8100,34.0
20.8230,42.0
20.8360,41.0
20.8490,38.0
20.8620,35.0
20.8750,35.0
20.8880,41.0
20.9010,32.0
20.9140,30.0
20.9270,34.0
20.9400,35.0
20.9530,32.0
20.9660,31.0
20.9790,35.0
20.9920,35.0
21.0050,36.0
21.0180,32.0
21.0310,33.0
21.0440,31.0
21.0570,33.0
21.0700,34.0
21.0830,34.0
21.0960,30.0
21.1090,24.0
21.1220,30.0
21.1350,29.0
21.1480,27.0
21.1610,26.0
21.1740,26.0
21.1870,32.0
21.2000,35.0
21.2130,38.0
21.2260,33.0
21.2390,31.0
21.2520,36.0
21.2650,42.0
21.2780,44.0
21.2910,37.0
21.3040,37.0
21.3170,36.0
21.3300,26.0
21.3430,30.0
21.3560,41.0
21.3690,35.0
21.3820,30.0
21.3950,37.0
21.4080,30.0
21.4210,32.0
21.4340,34.0
21.4470,35.0
21.4600,29.0
21.4730,22.0
21.4860,24.0
21.4990,35.0
21.5120,38.0
21.5250,38.0
21.5380,26.0
21.5510,31.0
21.5640,29.0
21.5770,30.0
21.5900,24.0
21.6030,28.0
21.6160,41.0
21.6290,34.0
21.6420,23.0
21.6550,25.0
21.6680,36.0
21.6810,35.0
21.6940,39.0
21.7070,37.0
21.7200,32.0
21.7330,28.0
21.7460,22.0
21.7590,31.0
21.7720,42.0
21.7850,35.0
21.7980,42.0
21.8110,19.0
21.8240,40.0
21.8370,29.0
21.8500,33.0
21.8630,38.0
21.8760,23.0
21.8890,25.0
21.9020,29.0
21.9150,24.0
21.9280,32.0
21.9410,32.0
21.9540,28.0
21.9670,36.0
21.9800,35.0
21.9930,29.0
22.0060,31.0
22.0190,38.0
22.0320,35.0
22.0450,29.0
22.0580,33.0
22.0710,38.0
22.0840,40.0
22.0970,26.0
22.1100,27.0
22.1230,30.0
22.1360,33.0
22.1490,34.0
22.1620,39.0
22.1750,36.0
22.1880,35.0
22.2010,30.0
22.2140,29.0
22.2270,25.0
22.2400,31.0
22.2530,36.0
22.2660,33.0
22.2790,30.0
22.2920,26.0
22.3050,27.0
22.3180,30.0
22.3310,33.0
22.3440,32.0
22.3570,28.0
22.3700,33.0
22.3830,35.0
22.3960,35.0
22.4090,35.0
22.4220,36.0
22.4350,28.0
22.4480,27.0
22.4610,36.0
22.4740,39.0
22.4870,38.0
22.5000,35.0
22.5130,34.0
22.5260,30.0
22.5390,31.0
22.5520,32.0
22.5650,32.0
22.5780,37.0
22.5910,32.0
22.6040,37.0
22.6170,37.0
22.6300,25.0
22.6430,30.0
22.6560,32.0
22.6690,31.0
22.6820,29.0
22.6950,32.0
22.7080,38.0
22.7210,33.0
22.7340,33.0
22.7470,34.0
22.7600,36.0
22.7730,23.0
22.7860,25.0
22.7990,30.0
22.8120,23.0
22.8250,29.0
22.8380,31.0
22.8510,45.0
22.8640,31.0
22.8770,25.0
22.8900,33.0
22.9030,30.0
22.9160,34.0
22.9290,27.0
22.9420,29.0
22.9550,30.0
22.9680,35.0
22.9810,39.0
22.9940,26.0
23.0070,34.0
23.0200,35.0
23.0330,26.0
23.0460,40.0
23.0590,35.0
23.0720,25.0
23.0850,25.0
23.0980,26.0
23.1110,39.0
23.1240,31.0
23.1370,33.0
23.1500,43.0
23.1630,37.0
23.1760,30.0
23.1890,33.0
23.2020,34.0
23.2150,34.0
23.2280,27.0
23.2410,36.0
23.2540,35.0
23.2670,29.0
23.2800,34.0
23.2930,33.0
23.3060,32.0
23.3190,39.0
23.3320,28.0
23.3450,29.0
23.3580,36.0
23.3710,31.0
23.3840,40.0
23.3970,36.0
23.4100,41.0
23.4230,44.0
23.4360,39.0
23.4490,33.0
23.4620,36.0
23.4750,37.0
23.4880,27.0
23.5010,29.0
23.5140,30.0
23.5270,29.0
23.5400,31.0
23.5530,33.0
23.5660,31.0
23.5790,30.0
23.5920,30.0
23.6050,31.0
23.6180,35.0
23.6310,33.0
23.6440,37.0
23.6570,36.0
23.6700,33.0
23.6830,36.0
23.6960,36.0
23.7090,38.0
23.7220,40.0
23.7350,35.0
23.7480,33.0
23.7610,39.0
23.7740,40.0
23.7870,36.0
23.8000,30.0
23.8130,24.0
23.8260,26.0
23.8390,29.0
23.8520,34.0
23.8650,35.0
23.8780,32.0
23.8910,28.0
23.9040,29.0
23.9170,35.0
23.9300,34.0
23.9430,32.0
23.9560,34.0
23.9690,42.0
23.9820,42.0
23.9950,38.0
24.0080,38.0
24.0210,30.0
24.0340,28.0
24.0470,34.0
24.0600,31.0
24.0730,25.0
24.0860,27.0
24.0990,26.0
24.1120,27.0
24.1250,34.0
24.1380,36.0
24.1510,36.0
24.1640,33.0
24.1770,40.0
24.1900,35.0
24.2030,34.0
24.2160,38.0
24.2290,36.0
24.2420,33.0
24.2550,30.0
24.2680,32.0
24.2810,32.0
24.2940,34.0
24.3070,30.0
24.3200,33.0
24.3330,43.0
24.3460,39.0
24.3590,33.0
24.3720,23.0
24.3850,31.0
24.3980,29.0
24.4110,36.0
24.4240,37.0
24.4370,38.0
24.4500,26.0
24.4630,29.0
24.4760,42.0
24.4890,46.0
24.5020,36.0
24.5150,27.0
24.5280,20.0
24.5410,30.0
24.5540,27.0
24.5670,29.0
24.5800,32.0
24.5930,33.0
24.6060,30.0
24.6190,33.0
24.6320,27.0
24.6450,32.0
24.6580,19.0
24.6710,39.0
24.6840,41.0
24.6970,29.0
24.7100,24.0
24.7230,24.0
24.7360,29.0
24.7490,31.0
24.7620,32.0
24.7750,29.0
24.7880,34.0
24.8010,27.0
24.8140,30.0
24.8270,28.0
24.8400,29.0
24.8530,30.0
24.8660,37.0
24.8790,32.0
24.8920,31.0
24.9050,33.0
24.9180,37.0
24.9310,35.0
24.9440,29.0
24.9570,29.0
24.9700,26.0
24.9830,29.0
24.9960,31.0
25.0090,31.0
25.0220,35.0
25.0350,33.0
25.0480,28.0
25.0610,23.0
25.0740,28.0
25.0870,33.0
25.1000,27.0
25.1130,32.0
25.1260,36.0
25.1390,31.0
25.1520,37.0
25.1650,39.0
25.1780,31.0
25.1910,24.0
25.2040,32.0
25.2170,37.0
25.2300,34.0
25.2430,31.0
25.2560,27.0
25.2690,28.0
25.2820,33.0
25.2950,30.0
25.3080,25.0
25.3210,33.0
25.3340,34.0
25.3470,25.0
25.3600,34.0
25.3730,41.0
25.3860,38.0
25.3990,39.0
25.4120,37.0
25.4250,29.0
25.4380,31.0
25.4510,36.0
25.4640,33.0
25.4770,31.0
25.4900,27.0
25.5030,40.0
25.5160,31.0
25.5290,37.0
25.5420,33.0
25.5550,36.0
25.5680,33.0
25.5810,31.0
25.5940,30.0
25.6070,30.0
25.6200,23.0
25.6330,36.0
25.6460,28.0
25.6590,28.0
25.6720,23.0
25.6850,38.0
25.6980,36.0
25.7110,37.0
25.7240,22.0
25.7370,23.0
25.7500,34.0
25.7630,30.0
25.7760,37.0
25.7890,35.0
25.8020,27.0
25.8150,27.0
25.8280,34.0
25.8410,28.0
25.8540,35.0
25.8670,23.0
25.8800,24.0
25.8930,47.0
25.9060,34.0
25.9190,29.0
25.9320,40.0
25.9450,33.0
25.9580,34.0
25.9710,32.0
25.9840,25.0
25.9970,31.0
26.0100,38.0
26.0230,30.0
26.0360,30.0
26.0490,27.0
26.0620,27.0
26.0750,41.0
26.0880,34.0
26.1010,34.0
26.1140,30.0
26.1270,27.0
26.1400,29.0
26.1530,33.0
26.1660,30.0
26.1790,30.0
26.1920,29.0
26.2050,31.0
26.2180,29.0
26.2310,37.0
26.2440,40.0
26.2570,36.0
26.2700,35.0
26.2830,37.0
26.2960,32.0
26.3090,32.0
26.3220,33.0
26.3350,34.0
26.3480,32.0
26.3610,26.0
26.3740,35.0
26.3870,38.0
26.4000,29.0
26.4130,29.0
26.4260,31.0
26.4390,36.0
26.4520,37.0
26.4650,39.0
26.4780,38.0
26.4910,29.0
26.5040,26.0
26.5170,30.0
26.5300,33.0
26.5430,25.0
26.5560,24.0
26.5690,29.0
26.5820,26.0
26.5950,30.0
26.6080,24.0
26.6210,28.0
26.6340,29.0
26.6470,31.0
26.6600,35.0
26.6730,28.0
26.6860,29.0
26.6990,30.0
26.7120,36.0
26.7250,33.0
26.7380,31.0
26.7510,35.0
26.7640,33.0
26.7770,31.0
26.7900,30.0
26.8030,35.0
26.8160,31.0
26.8290,35.0
26.8420,26.0
26.8550,29.0
26.8680,26.0
26.8810,37.0
26.8940,32.0
26.9070,24.0
26.9200,36.0
26.9330,26.0
26.9460,29.0
26.9590,37.0
26.9720,39.0
26.9850,42.0
26.9980,30.0
27.0110,32.0
27.0240,39.0
27.0370,35.0
27.0500,29.0
27.0630,34.0
27.0760,44.0
27.0890,30.0
27.1020,34.0
27.1150,26.0
27.1280,31.0
27.1410,33.0
27.1540,35.0
27.1670,31.0
27.1800,27.0
27.1930,36.0
27.2060,35.0
27.2190,44.0
27.2320,34.0
27.2450,35.0
27.2580,33.0
27.2710,34.0
27.2840,45.0
27.2970,42.0
27.3100,42.0
27.3230,37.0
27.3360,23.0
27.3490,30.0
27.3620,34.0
27.3750,31.0
27.3880,27.0
27.4010,25.0
27.4140,33.0
27.4270,30.0
27.4400,32.0
27.4530,28.0
27.4660,34.0
27.4790,38.0
27.4920,38.0
27.5050,31.0
27.5180,30.0
27.5310,34.0
27.5440,32.0
27.5570,34.0
27.5700,29.0
27.5830,29.0
27.5960,31.0
27.6090,34.0
27.6220,33.0
27.6350,30.0
27.6480,36.0
27.6610,38.0
27.6740,33.0
27.6870,29.0
27.7000,27.0
27.7130,28.0
27.7260,30.0
27.7390,27.0
27.7520,24.0
27.7650,29.0
27.7780,30.0
27.7910,31.0
27.8040,25.0
27.8170,23.0
27.8300,28.0
27.8430,31.0
27.8560,33.0
27.8690,26.0
27.8820,25.0
27.8950,28.0
27.9080,35.0
27.9210,38.0
27.9340,35.0
27.9470,28.0
27.9600,31.0
27.9730,38.0
27.9860,34.0
27.9990,27.0
28.0120,33.0
28.0250,41.0
28.0380,42.0
28.0510,35.0
28.0640,34.0
28.0770,30.0
28.0900,27.0
28.1030,34.0
28.1160,35.0
28.1290,36.0
28.1420,30.0
28.1550,34.0
28.1680,27.0
28.1810,25.0
28.1940,31.0
28.2070,42.0
28.2200,36.0
28.2330,27.0
28.2460,32.0
28.2590,34.0
28.2720,30.0
28.2850,39.0
28.2980,29.0
28.3110,27.0
28.3240,28.0
28.3370,38.0
28.3500,32.0
28.3630,34.0
28.3760,30.0
28.3890,38.0
28.4020,34.0
28.4150,30.0
28.4280,39.0
28.4410,43.0
28.4540,42.0
28.4670,44.0
28.4800,49.0
28.4930,42.0
28.5060,44.0
28.5190,30.0
28.5320,44.0
28.5450,41.0
28.5580,54.0
28.5710,66.0
28.5840,67.0
28.5970,67.0
28.6100,66.0
28.6230,98.0
28.6360,108.0
28.6490,121.0
28.6620,140.0
28.6750,159.0
28.6880,217.0
28.7010,293.0
28.7140,345.0
28.7270,420.0
28.7400,453.0
28.7530,403.0
28.7660,316.0
28.7790,260.0
28.7920,250.0
28.8050,250.0
28.8180,228.0
28.8310,191.0
28.8440,151.0
28.8570,104.0
28.8700,66.0
28.8830,63.0
28.8960,67.0
28.9090,54.0
28.9220,51.0
28.9350,51.0
28.9480,45.0
28.9610,45.0
28.9740,41.0
28.9870,34.0
29.0000,38.0
29.0130,35.0
29.0260,29.0
29.0390,31.0
29.0520,32.0
29.0650,32.0
29.0780,32.0
29.0910,31.0
29.1040,35.0
29.1170,32.0
29.1300,30.0
29.1430,34.0
29.1560,32.0
29.1690,39.0
29.1820,43.0
29.1950,33.0
29.2080,30.0
29.2210,30.0
29.2340,34.0
29.2470,36.0
29.2600,29.0
29.2730,33.0
29.2860,35.0
29.2990,34.0
29.3120,35.0
29.3250,23.0
29.3380,31.0
29.3510,29.0
29.3640,32.0
29.3770,32.0
29.3900,30.0
29.4030,30.0
29.4160,33.0
29.4290,27.0
29.4420,24.0
29.4550,32.0
29.4680,34.0
29.4810,33.0
29.4940,45.0
29.5070,37.0
29.5200,27.0
29.5330,33.0
29.5460,26.0
29.5590,33.0
29.5720,37.0
29.5850,29.0
29.5980,33.0
29.6110,24.0
29.6240,35.0
29.6370,32.0
29.6500,23.0
29.6630,30.0
29.6760,34.0
29.6890,41.0
29.7020,29.0
29.7150,25.0
29.7280,39.0
29.7410,30.0
29.7540,25.0
29.7670,40.0
29.7800,34.0
29.7930,22.0
29.8060,25.0
29.8190,21.0
29.8320,24.0
29.8450,26.0
29.8580,27.0
29.8710,28.0
29.8840,25.0
29.8970,31.0
29.9100,36.0
29.9230,30.0
29.9360,27.0
29.9490,31.0
29.9620,31.0
29.9750,28.0
29.9880,31.0
30.0010,32.0
30.0140,28.0
30.0270,28.0
30.0400,23.0
30.0530,25.0
30.0660,33.0
30.0790,30.0
30.0920,26.0
30.1050,28.0
30.1180,31.0
30.1310,33.0
30.1440,29.0
30.1570,25.0
30.1700,26.0
30.1830,31.0
30.1960,31.0
30.2090,30.0
30.2220,29.0
30.2350,30.0
30.2480,35.0
30.2610,35.0
30.2740,32.0
30.2870,32.0
30.3000,28.0
30.3130,27.0
30.3260,31.0
30.3390,31.0
30.3520,35.0
30.3650,31.0
30.3780,27.0
30.3910,34.0
30.4040,34.0
30.4170,30.0
30.4300,27.0
30.4430,23.0
30.4560,32.0
30.4690,35.0
30.4820,29.0
30.4950,30.0
30.5080,33.0
30.5210,33.0
30.5340,28.0
30.5470,29.0
30.5600,38.0
30.5730,32.0
30.5860,24.0
30.5990,28.0
30.6120,27.0
30.6250,36.0
30.6380,29.0
30.6510,27.0
30.6640,27.0
30.6770,31.0
30.6900,25.0
30.7030,23.0
30.7160,28.0
30.7290,26.0
30.7420,30.0
30.7550,29.0
30.7680,33.0
30.7810,32.0
30.7940,26.0
30.8070,28.0
30.8200,35.0
30.8330,38.0
30.8460,29.0
30.8590,30.0
30.8720,25.0
30.8850,26.0
30.8980,32.0
30.9110,26.0
30.9240,33.0
30.9370,28.0
30.9500,38.0
30.9630,23.0
30.9760,19.0
30.9890,32.0
31.0020,38.0
31.0150,32.0
31.0280,40.0
31.0410,30.0
31.0540,25.0
31.0670,27.0
31.0800,21.0
31.0930,30.0
31.1060,22.0
31.1190,41.0
31.1320,29.0
31.1450,23.0
31.1580,28.0
31.1710,32.0
31.1840,35.0
31.1970,24.0
31.2100,38.0
31.2230,29.0
31.2360,28.0
31.2490,29.0
31.2620,32.0
31.2750,28.0
31.2880,36.0
31.3010,30.0
31.3140,29.0
31.3270,31.0
31.3400,27.0
31.3530,30.0
31.3660,29.0
31.3790,23.0
31.3920,32.0
31.4050,36.0
31.4180,33.0
31.4310,37.0
31.4440,36.0
31.4570,35.0
31.4700,28.0
31.4830,25.0
31.4960,33.0
31.5090,35.0
31.5220,30.0
31.5350,26.0
31.5480,32.0
31.5610,35.0
31.5740,33.0
31.5870,31.0
31.6000,26.0
31.6130,28.0
31.6260,35.0
31.6390,36.0
31.6520,35.0
31.6650,31.0
31.6780,33.0
31.6910,31.0
31.7040,23.0
31.7170,29.0
31.7300,30.0
31.7430,26.0
31.7560,23.0
31.7690,24.0
31.7820,36.0
31.7950,41.0
31.8080,37.0
31.8210,29.0
31.8340,30.0
31.8470,29.0
31.8600,28.0
31.8730,28.0
31.8860,27.0
31.8990,30.0
31.9120,30.0
31.9250,24.0
31.9380,20.0
31.9510,23.0
31.9640,30.0
31.9770,32.0
31.9900,31.0
32.0030,28.0
32.0160,29.0
32.0290,35.0
32.0420,33.0
32.0550,29.0
32.0680,30.0
32.0810,42.0
32.0940,26.0
32.1070,25.0
32.1200,27.0
32.1330,31.0
32.1460,19.0
32.1590,32.0
32.1720,37.0
32.1850,37.0
32.1980,32.0
32.2110,25.0
32.2240,24.0
32.2370,22.0
32.2500,35.0
32.2630,30.0
32.2760,32.0
32.2890,33.0
32.3020,30.0
32.3150,31.0
32.3280,27.0
32.3410,31.0
32.3540,28.0
32.3670,22.0
32.3800,25.0
32.3930,26.0
32.4060,35.0
32.4190,26.0
32.4320,29.0
32.4450,22.0
32.4580,24.0
32.4710,22.0
32.4840,38.0
32.4970,27.0
32.5100,22.0
32.5230,20.0
32.5360,22.0
32.5490,28.0
32.5620,27.0
32.5750,31.0
32.5880,35.0
32.6010,28.0
32.6140,19.0
32.6270,31.0
32.6400,30.0
32.6530,29.0
32.6660,28.0
32.6790,27.0
32.6920,28.0
32.7050,24.0
32.7180,22.0
32.7310,27.0
32.7440,28.0
32.7570,31.0
32.7700,34.0
32.7830,33.0
32.7960,32.0
32.8090,28.0
32.8220,24.0
32.8350,23.0
32.8480,26.0
32.8610,26.0
32.8740,23.0
32.8870,23.0
32.9000,24.0
32.9130,30.0
32.9260,29.0
32.9390,26.0
32.9520,32.0
32.9650,34.0
32.9780,28.0
32.9910,26.0
33.0040,28.0
33.0170,28.0
33.0300,27.0
33.0430,28.0
33.0560,26.0
33.0690,29.0
33.0820,34.0
33.0950,27.0
33.1080,25.0
33.1210,30.0
33.1340,33.0
33.1470,29.0
33.1600,32.0
33.1730,28.0
33.1860,20.0
33.1990,26.0
33.2120,30.0
33.2250,33.0
33.2380,35.0
33.2510,33.0
33.2640,42.0
33.2770,34.0
33.2900,32.0
33.3030,25.0
33.3160,22.0
33.3290,29.0
33.3420,23.0
33.3550,27.0
33.3680,28.0
33.3810,28.0
33.3940,37.0
33.4070,34.0
33.4200,29.0
33.4330,16.0
33.4460,23.0
33.4590,41.0
33.4720,21.0
33.4850,25.0
33.4980,26.0
33.5110,23.0
33.5240,29.0
33.5370,30.0
33.5500,25.0
33.5630,26.0
33.5760,28.0
33.5890,29.0
33.6020,27.0
33.6150,31.0
33.6280,30.0
33.6410,31.0
33.6540,22.0
33.6670,30.0
33.6800,35.0
33.6930,28.0
33.7060,31.0
33.7190,32.0
33.7320,36.0
33.7450,40.0
33.7580,37.0
33.7710,40.0
33.7840,25.0
33.7970,28.0
33.8100,36.0
33.8230,33.0
33.8360,34.0
33.8490,32.0
33.8620,36.0
33.8750,35.0
33.8880,32.0
33.9010,26.0
33.9140,28.0
33.9270,28.0
33.9400,29.0
33.9530,28.0
33.9660,23.0
33.9790,29.0
33.9920,28.0
34.0050,22.0
34.0180,32.0
34.0310,24.0
34.0440,22.0
34.0570,19.0
34.0700,27.0
34.0830,31.0
34.0960,28.0
34.1090,27.0
34.1220,29.0
34.1350,30.0
34.1480,34.0
34.1610,34.0
34.1740,28.0
34.1870,29.0
34.2000,35.0
34.2130,28.0
34.2260,24.0
34.2390,26.0
34.2520,23.0
34.2650,27.0
34.2780,29.0
34.2910,32.0
34.3040,32.0
34.3170,27.0
34.3300,32.0
34.3430,31.0
34.3560,23.0
34.3690,27.0
34.3820,29.0
34.3950,32.0
34.4080,26.0
34.4210,19.0
34.4340,20.0
34.4470,24.0
34.4600,33.0
34.4730,31.0
34.4860,30.0
34.4990,30.0
34.5120,25.0
34.5250,30.0
34.5380,26.0
34.5510,26.0
34.5640,24.0
34.5770,27.0
34.5900,35.0
34.6030,21.0
34.6160,26.0
34.6290,28.0
34.6420,33.0
34.6550,28.0
34.6680,32.0
34.6810,28.0
34.6940,27.0
34.7070,30.0
34.7200,23.0
34.7330,25.0
34.7460,31.0
34.7590,35.0
34.7720,32.0
34.7850,27.0
34.7980,30.0
34.8110,27.0
34.8240,34.0
34.8370,31.0
34.8500,28.0
34.8630,29.0
34.8760,37.0
34.8890,29.0
34.9020,34.0
34.9150,14.0
34.9280,30.0
34.9410,23.0
34.9540,37.0
34.9670,27.0
34.9800,37.0
34.9930,20.0
35.0060,17.0
35.0190,23.0
35.0320,30.0
35.0450,22.0
35.0580,21.0
35.0710,38.0
35.0840,31.0
35.0970,28.0
35.1100,25.0
35.1230,30.0
35.1360,39.0
35.1490,26.0
35.1620,25.0
35.1750,34.0
35.1880,22.0
35.2010,24.0
35.2140,28.0
35.2270,26.0
35.2400,27.0
35.2530,37.0
35.2660,35.0
35.2790,33.0
35.2920,29.0
35.3050,24.0
35.3180,20.0
35.3310,22.0
35.3440,22.0
35.3570,23.0
35.3700,27.0
35.3830,21.0
35.3960,26.0
35.4090,26.0
35.4220,29.0
35.4350,32.0
35.4480,31.0
35.4610,30.0
35.4740,32.0
35.4870,26.0
35.5000,21.0
35.5130,22.0
35.5260,23.0
35.5390,23.0
35.5520,19.0
35.5650,21.0
35.5780,30.0
35.5910,33.0
35.6040,27.0
35.6170,25.0
35.6300,30.0
35.6430,27.0
35.6560,22.0
35.6690,23.0
35.6820,27.0
35.6950,29.0
35.7080,33.0
35.7210,33.0
35.7340,33.0
35.7470,28.0
35.7600,20.0
35.7730,22.0
35.7860,21.0
35.7990,27.0
35.8120,28.0
35.8250,24.0
35.8380,25.0
35.8510,24.0
35.8640,24.0
35.8770,32.0
35.8900,26.0
35.9030,25.0
35.9160,29.0
35.9290,32.0
35.9420,25.0
35.9550,32.0
35.9680,27.0
35.9810,20.0
35.9940,27.0
36.0070,24.0
36.0200,25.0
36.0330,22.0
36.0460,19.0
36.0590,20.0
36.0720,24.0
36.0850,25.0
36.0980,22.0
36.1110,32.0
36.1240,31.0
36.1370,30.0
36.1500,31.0
36.1630,28.0
36.1760,30.0
36.1890,23.0
36.2020,20.0
36.2150,29.0
36.2280,31.0
36.2410,26.0
36.2540,21.0
36.2670,21.0
36.2800,30.0
36.2930,25.0
36.3060,37.0
36.3190,34.0
36.3320,25.0
36.3450,24.0
36.3580,21.0
36.3710,23.0
36.3840,26.0
36.3970,32.0
36.4100,25.0
36.4230,32.0
36.4360,31.0
36.4490,41.0
36.4620,33.0
36.4750,23.0
36.4880,20.0
36.5010,25.0
36.5140,23.0
36.5270,22.0
36.5400,31.0
36.5530,28.0
36.5660,27.0
36.5790,25.0
36.5920,23.0
36.6050,25.0
36.6180,32.0
36.6310,32.0
36.6440,27.0
36.6570,27.0
36.6700,29.0
36.6830,32.0
36.6960,29.0
36.7090,32.0
36.7220,30.0
36.7350,20.0
36.7480,20.0
36.7610,19.0
36.7740,28.0
36.7870,28.0
36.8000,24.0
36.8130,28.0
36.8260,29.0
36.8390,23.0
36.8520,23.0
36.8650,33.0
36.8780,37.0
36.8910,29.0
36.9040,24.0
36.9170,31.0
36.9300,32.0
36.9430,29.0
36.9560,28.0
36.9690,27.0
36.9820,32.0
36.9950,36.0
37.0080,38.0
37.0210,32.0
37.0340,24.0
37.0470,31.0
37.0600,33.0
37.0730,27.0
37.0860,27.0
37.0990,29.0
37.1120,28.0
37.1250,24.0
37.1380,18.0
37.1510,29.0
37.1640,29.0
37.1770,28.0
37.1900,35.0
37.2030,35.0
37.2160,37.0
37.2290,34.0
37.2420,28.0
37.2550,32.0
37.2680,40.0
37.2810,33.0
37.2940,43.0
37.3070,48.0
37.3200,59.0
37.3330,37.0
37.3460,54.0
37.3590,54.0
37.3720,80.0
37.3850,92.0
37.3980,87.0
37.4110,93.0
37.4240,93.0
37.4370,105.0
37.4500,86.0
37.4630,51.0
37.4760,55.0
37.4890,69.0
37.5020,69.0
37.5150,70.0
37.5280,55.0
37.5410,54.0
37.5540,47.0
37.5670,47.0
37.5800,36.0
37.5930,30.0
37.6060,36.0
37.6190,30.0
37.6320,25.0
37.6450,39.0
37.6580,27.0
37.6710,29.0
37.6840,28.0
37.6970,23.0
37.7100,31.0
37.7230,28.0
37.7360,26.0
37.7490,30.0
37.7620,20.0
37.7750,36.0
37.7880,30.0
37.8010,22.0
37.8140,20.0
37.8270,20.0
37.8400,23.0
37.8530,24.0
37.8660,31.0
37.8790,30.0
37.8920,23.0
37.9050,24.0
37.9180,26.0
37.9310,31.0
37.9440,34.0
37.9570,29.0
37.9700,29.0
37.9830,24.0
37.9960,22.0
38.0090,23.0
38.0220,28.0
38.0350,27.0
38.0480,27.0
38.0610,24.0
38.0740,28.0
38.0870,30.0
38.1000,27.0
38.1130,25.0
38.1260,21.0
38.1390,18.0
38.1520,24.0
38.1650,28.0
38.1780,25.0
38.1910,30.0
38.2040,34.0
38.2170,28.0
38.2300,28.0
38.2430,32.0
38.2560,32.0
38.2690,28.0
38.2820,26.0
38.2950,26.0
38.3080,31.0
38.3210,34.0
38.3340,26.0
38.3470,27.0
38.3600,30.0
38.3730,24.0
38.3860,19.0
38.3990,25.0
38.4120,41.0
38.4250,42.0
38.4380,31.0
38.4510,22.0
38.4640,27.0
38.4770,26.0
38.4900,27.0
38.5030,22.0
38.5160,24.0
38.5290,33.0
38.5420,28.0
38.5550,28.0
38.5680,28.0
38.5810,30.0
38.5940,28.0
38.6070,26.0
38.6200,28.0
38.6330,31.0
38.6460,33.0
38.6590,27.0
38.6720,29.0
38.6850,33.0
38.6980,29.0
38.7110,29.0
38.7240,22.0
38.7370,27.0
38.7500,29.0
38.7630,30.0
38.7760,20.0
38.7890,22.0
38.8020,23.0
38.8150,18.0
38.8280,26.0
38.8410,36.0
38.8540,30.0
38.8670,27.0
38.8800,36.0
38.8930,25.0
38.9060,24.0
38.9190,22.0
38.9320,22.0
38.9450,26.0
38.9580,29.0
38.9710,25.0
38.9840,27.0
38.9970,17.0
39.0100,29.0
39.0230,25.0
39.0360,25.0
39.0490,26.0
39.0620,19.0
39.0750,27.0
39.0880,32.0
39.1010,23.0
39.1140,25.0
39.1270,28.0
39.1400,22.0
39.1530,21.0
39.1660,24.0
39.1790,29.0
39.1920,24.0
39.2050,26.0
39.2180,27.0
39.2310,28.0
39.2440,27.0
39.2570,23.0
39.2700,26.0
39.2830,29.0
39.2960,29.0
39.3090,25.0
39.3220,24.0
39.3350,28.0
39.3480,29.0
39.3610,22.0
39.3740,25.0
39.3870,26.0
39.4000,25.0
39.4130,25.0
39.4260,27.0
39.4390,31.0
39.4520,31.0
39.4650,24.0
39.4780,19.0
39.4910,20.0
39.5040,29.0
39.5170,29.0
39.5300,21.0
39.5430,24.0
39.5560,28.0
39.5690,26.0
39.5820,25.0
39.5950,27.0
39.6080,27.0
39.6210,28.0
39.6340,25.0
39.6470,23.0
39.6600,28.0
39.6730,27.0
39.6860,23.0
39.6990,25.0
39.7120,27.0
39.7250,27.0
39.7380,23.0
39.7510,20.0
39.7640,25.0
39.7770,35.0
39.7900,23.0
39.8030,25.0
39.8160,25.0
39.8290,21.0
39.8420,26.0
39.8550,25.0
39.8680,26.0
39.8810,24.0
39.8940,26.0
39.9070,27.0
39.9200,37.0
39.9330,27.0
39.9460,20.0
39.9590,29.0
39.9720,31.0
39.9850,14.0
39.9980,18.0
40.0110,25.0
40.0240,24.0
40.0370,25.0
40.0500,28.0
40.0630,27.0
40.0760,21.0
40.0890,25.0
40.1020,22.0
40.1150,26.0
40.1280,20.0
40.1410,38.0
40.1540,28.0
40.1670,20.0
40.1800,25.0
40.1930,25.0
40.2060,32.0
40.2190,24.0
40.2320,22.0
40.2450,34.0
40.2580,30.0
40.2710,34.0
40.2840,33.0
40.2970,30.0
40.3100,29.0
40.3230,24.0
40.3360,33.0
40.3490,27.0
40.3620,19.0
40.3750,24.0
40.3880,27.0
40.4010,35.0
40.4140,27.0
40.4270,27.0
40.4400,27.0
40.4530,24.0
40.4660,31.0
40.4790,36.0
40.4920,32.0
40.5050,26.0
40.5180,28.0
40.5310,33.0
40.5440,29.0
40.5570,38.0
40.5700,29.0
40.5830,23.0
40.5960,23.0
40.6090,29.0
40.6220,29.0
40.6350,23.0
40.6480,25.0
40.6610,28.0
40.6740,26.0
40.6870,27.0
40.7000,28.0
40.7130,32.0
40.7260,26.0
40.7390,25.0
40.7520,27.0
40.7650,24.0
40.7780,22.0
40.7910,24.0
40.8040,26.0
40.8170,24.0
40.8300,28.0
40.8430,30.0
40.8560,25.0
40.8690,26.0
40.8820,32.0
40.8950,33.0
40.9080,27.0
40.9210,29.0
40.9340,30.0
40.9470,35.0
40.9600,37.0
40.9730,29.0
40.9860,33.0
40.9990,34.0
41.0120,46.0
41.0250,50.0
41.0380,46.0
41.0510,46.0
41.0640,50.0
41.0770,49.0
41.0900,47.0
41.1030,42.0
41.1160,48.0
41.1290,30.0
41.1420,31.0
41.1550,40.0
41.1680,33.0
41.1810,36.0
41.1940,28.0
41.2070,38.0
41.2200,38.0
41.2330,28.0
41.2460,31.0
41.2590,25.0
41.2720,31.0
41.2850,30.0
41.2980,28.0
41.3110,25.0
41.3240,27.0
41.3370,23.0
41.3500,30.0
41.3630,31.0
41.3760,31.0
41.3890,21.0
41.4020,19.0
41.4150,29.0
41.4280,33.0
41.4410,18.0
41.4540,21.0
41.4670,21.0
41.4800,29.0
41.4930,25.0
41.5060,28.0
41.5190,31.0
41.5320,29.0
41.5450,32.0
41.5580,32.0
41.5710,26.0
41.5840,32.0
41.5970,18.0
41.6100,25.0
41.6230,25.0
41.6360,22.0
41.6490,29.0
41.6620,29.0
41.6750,28.0
41.6880,23.0
41.7010,20.0
41.7140,22.0
41.7270,29.0
41.7400,28.0
41.7530,28.0
41.7660,27.0
41.7790,24.0
41.7920,26.0
41.8050,29.0
41.8180,33.0
41.8310,30.0
41.8440,29.0
41.8570,28.0
41.8700,26.0
41.8830,27.0
41.8960,34.0
41.9090,29.0
41.9220,28.0
41.9350,26.0
41.9480,22.0
41.9610,26.0
41.9740,23.0
41.9870,26.0
42.0000,32.0
42.0130,29.0
42.0260,27.0
42.0390,22.0
42.0520,20.0
42.0650,24.0
42.0780,25.0
42.0910,23.0
42.1040,26.0
42.1170,33.0
42.1300,32.0
42.1430,27.0
42.1560,25.0
42.1690,22.0
42.1820,28.0
42.1950,25.0
42.2080,20.0
42.2210,25.0
42.2340,23.0
42.2470,29.0
42.2600,34.0
42.2730,23.0
42.2860,22.0
42.2990,23.0
42.3120,26.0
42.3250,26.0
42.3380,20.0
42.3510,18.0
42.3640,17.0
42.3770,26.0
42.3900,25.0
42.4030,24.0
42.4160,29.0
42.4290,32.0
42.4420,30.0
42.4550,28.0
42.4680,28.0
42.4810,33.0
42.4940,29.0
42.5070,29.0
42.5200,23.0
42.5330,17.0
42.5460,27.0
42.5590,23.0
42.5720,27.0
42.5850,25.0
42.5980,27.0
42.6110,34.0
42.6240,25.0
42.6370,22.0
42.6500,24.0
42.6630,27.0
42.6760,30.0
42.6890,17.0
42.7020,26.0
42.7150,23.0
42.7280,20.0
42.7410,30.0
42.7540,37.0
42.7670,32.0
42.7800,32.0
42.7930,41.0
42.8060,35.0
42.8190,24.0
42.8320,35.0
42.8450,54.0
42.8580,46.0
42.8710,56.0
42.8840,42.0
42.8970,40.0
42.9100,33.0
42.9230,35.0
42.9360,41.0
42.9490,39.0
42.9620,41.0
42.9750,38.0
42.9880,26.0
43.0010,31.0
43.0140,36.0
43.0270,29.0
43.0400,36.0
43.0530,32.0
43.0660,27.0
43.0790,24.0
43.0920,25.0
43.1050,18.0
43.1180,26.0
43.1310,27.0
43.1440,22.0
43.1570,24.0
43.1700,31.0
43.1830,29.0
43.1960,23.0
43.2090,24.0
43.2220,20.0
43.2350,22.0
43.2480,26.0
43.2610,25.0
43.2740,24.0
43.2870,27.0
43.3000,25.0
43.3130,31.0
43.3260,28.0
43.3390,22.0
43.3520,22.0
43.3650,26.0
43.3780,28.0
43.3910,22.0
43.4040,23.0
43.4170,26.0
43.4300,24.0
43.4430,30.0
43.4560,29.0
43.4690,22.0
43.4820,21.0
43.4950,19.0
43.5080,26.0
43.5210,30.0
43.5340,28.0
43.5470,29.0
43.5600,29.0
43.5730,29.0
43.5860,36.0
43.5990,32.0
43.6120,27.0
43.6250,27.0
43.6380,20.0
43.6510,27.0
43.6640,28.0
43.6770,20.0
43.6900,22.0
43.7030,22.0
43.7160,28.0
43.7290,24.0
43.7420,18.0
43.7550,23.0
43.7680,20.0
43.7810,26.0
43.7940,20.0
43.8070,25.0
43.8200,22.0
43.8330,22.0
43.8460,31.0
43.8590,29.0
43.8720,32.0
43.8850,25.0
43.8980,20.0
43.9110,30.0
43.9240,36.0
43.9370,32.0
43.9500,30.0
43.9630,31.0
43.9760,25.0
43.9890,16.0
44.0020,31.0
44.0150,25.0
44.0280,27.0
44.0410,20.0
44.0540,26.0
44.0670,21.0
44.0800,23.0
44.0930,33.0
44.1060,24.0
44.1190,25.0
44.1320,20.0
44.1450,25.0
44.1580,28.0
44.1710,20.0
44.1840,24.0
44.1970,28.0
44.2100,24.0
44.2230,24.0
44.2360,17.0
44.2490,26.0
44.2620,20.0
44.2750,27.0
44.2880,31.0
44.3010,24.0
44.3140,26.0
44.3270,26.0
44.3400,32.0
44.3530,21.0
44.3660,23.0
44.3790,27.0
44.3920,25.0
44.4050,24.0
44.4180,25.0
44.4310,26.0
44.4440,20.0
44.4570,21.0
44.4700,24.0
44.4830,18.0
44.4960,18.0
44.5090,23.0
44.5220,27.0
44.5350,33.0
44.5480,29.0
44.5610,31.0
44.5740,29.0
44.5870,28.0
44.6000,32.0
44.6130,28.0
44.6260,30.0
44.6390,24.0
44.6520,21.0
44.6650,21.0
44.6780,26.0
44.6910,23.0
44.7040,17.0
44.7170,18.0
44.7300,23.0
44.7430,27.0
44.7560,27.0
44.7690,26.0
44.7820,21.0
44.7950,22.0
44.8080,26.0
44.8210,26.0
44.8340,22.0
44.8470,24.0
44.8600,28.0
44.8730,27.0
44.8860,27.0
44.8990,21.0
44.9120,21.0
44.9250,29.0
44.9380,27.0
44.9510,26.0
44.9640,22.0
44.9770,23.0
44.9900,30.0
45.0030,22.0
45.0160,27.0
45.0290,26.0
45.0420,23.0
45.0550,25.0
45.0680,27.0
45.0810,24.0
45.0940,20.0
45.1070,24.0
45.1200,20.0
45.1330,23.0
45.1460,27.0
45.1590,32.0
45.1720,28.0
45.1850,18.0
45.1980,21.0
45.2110,30.0
45.2240,27.0
45.2370,21.0
45.2500,28.0
45.2630,24.0
45.2760,26.0
45.2890,29.0
45.3020,25.0
45.3150,21.0
45.3280,22.0
45.3410,26.0
45.3540,29.0
45.3670,34.0
45.3800,33.0
45.3930,23.0
45.4060,19.0
45.4190,17.0
45.4320,29.0
45.4450,24.0
45.4580,27.0
45.4710,29.0
45.4840,20.0
45.4970,25.0
45.5100,21.0
45.5230,19.0
45.5360,23.0
45.5490,29.0
45.5620,28.0
45.5750,27.0
45.5880,26.0
45.6010,20.0
45.6140,26.0
45.6270,25.0
45.6400,22.0
45.6530,24.0
45.6660,30.0
45.6790,30.0
45.6920,22.0
45.7050,26.0
45.7180,24.0
45.7310,28.0
45.7440,24.0
45.7570,28.0
45.7700,24.0
45.7830,22.0
45.7960,30.0
45.8090,27.0
45.8220,20.0
45.8350,24.0
45.8480,21.0
45.8610,17.0
45.8740,19.0
45.8870,25.0
45.9000,27.0
45.9130,24.0
45.9260,21.0
45.9390,24.0
45.9520,31.0
45.9650,25.0
45.9780,22.0
45.9910,27.0
46.0040,26.0
46.0170,26.0
46.0300,28.0
46.0430,28.0
46.0560,28.0
46.0690,31.0
46.0820,33.0
46.0950,33.0
46.1080,31.0
46.1210,29.0
46.1340,29.0
46.1470,36.0
46.1600,39.0
46.1730,39.0
46.1860,37.0
46.1990,32.0
46.2120,31.0
46.2250,29.0
46.2380,43.0
46.2510,41.0
46.2640,35.0
46.2770,31.0
46.2900,35.0
46.3030,41.0
46.3160,37.0
46.3290,32.0
46.3420,29.0
46.3550,23.0
46.3680,24.0
46.3810,32.0
46.3940,23.0
46.4070,26.0
46.4200,24.0
46.4330,24.0
46.4460,19.0
46.4590,25.0
46.4720,23.0
46.4850,19.0
46.4980,25.0
46.5110,25.0
46.5240,26.0
46.5370,28.0
46.5500,23.0
46.5630,21.0
46.5760,26.0
46.5890,27.0
46.6020,29.0
46.6150,27.0
46.6280,28.0
46.6410,25.0
46.6540,25.0
46.6670,29.0
46.6800,33.0
46.6930,21.0
46.7060,38.0
46.7190,28.0
46.7320,23.0
46.7450,26.0
46.7580,27.0
46.7710,35.0
46.7840,26.0
46.7970,23.0
46.8100,23.0
46.8230,24.0
46.8360,32.0
46.8490,28.0
46.8620,26.0
46.8750,23.0
46.8880,28.0
46.9010,23.0
46.9140,24.0
46.9270,29.0
46.9400,23.0
46.9530,22.0
46.9660,24.0
46.9790,23.0
46.9920,33.0
47.0050,27.0
47.0180,27.0
47.0310,19.0
47.0440,21.0
47.0570,35.0
47.0700,31.0
47.0830,22.0
47.0960,21.0
47.1090,26.0
47.1220,24.0
47.1350,22.0
47.1480,27.0
47.1610,32.0
47.1740,33.0
47.1870,22.0
47.2000,18.0
47.2130,18.0
47.2260,20.0
47.2390,27.0
47.2520,30.0
47.2650,27.0
47.2780,27.0
47.2910,27.0
47.3040,30.0
47.3170,25.0
47.3300,23.0
47.3430,25.0
47.3560,23.0
47.3690,23.0
47.3820,22.0
47.3950,20.0
47.4080,20.0
47.4210,22.0
47.4340,26.0
47.4470,32.0
47.4600,34.0
47.4730,23.0
47.4860,23.0
47.4990,26.0
47.5120,16.0
47.5250,19.0
47.5380,30.0
47.5510,25.0
47.5640,20.0
47.5770,20.0
47.5900,25.0
47.6030,27.0
47.6160,26.0
47.6290,27.0
47.6420,28.0
47.6550,29.0
47.6680,20.0
47.6810,26.0
47.6940,25.0
47.7070,24.0
47.7200,27.0
47.7330,29.0
47.7460,20.0
47.7590,25.0
47.7720,26.0
47.7850,27.0
47.7980,21.0
47.8110,38.0
47.8240,22.0
47.8370,21.0
47.8500,36.0
47.8630,20.0
47.8760,20.0
47.8890,25.0
47.9020,22.0
47.9150,29.0
47.9280,27.0
47.9410,22.0
47.9540,22.0
47.9670,23.0
47.9800,30.0
47.9930,23.0
48.0060,32.0
48.0190,29.0
48.0320,24.0
48.0450,18.0
48.0580,23.0
48.0710,28.0
48.0840,25.0
48.0970,19.0
48.1100,21.0
48.1230,32.0
48.1360,27.0
48.1490,22.0
48.1620,28.0
48.1750,31.0
48.1880,26.0
48.2010,21.0
48.2140,19.0
48.2270,19.0
48.2400,28.0
48.2530,24.0
48.2660,21.0
48.2790,25.0
48.2920,26.0
48.3050,27.0
48.3180,27.0
48.3310,23.0
48.3440,24.0
48.3570,25.0
48.3700,23.0
48.3830,24.0
48.3960,28.0
48.4090,21.0
48.4220,22.0
48.4350,26.0
48.4480,22.0
48.4610,26.0
48.4740,29.0
48.4870,22.0
48.5000,26.0
48.5130,29.0
48.5260,31.0
48.5390,32.0
48.5520,27.0
48.5650,20.0
48.5780,19.0
48.5910,26.0
48.6040,22.0
48.6170,24.0
48.6300,28.0
48.6430,29.0
48.6560,27.0
48.6690,21.0
48.6820,20.0
48.6950,27.0
48.7080,32.0
48.7210,28.0
48.7340,29.0
48.7470,29.0
48.7600,25.0
48.7730,24.0
48.7860,24.0
48.7990,30.0
48.8120,27.0
48.8250,24.0
48.8380,23.0
48.8510,26.0
48.8640,25.0
48.8770,30.0
48.8900,29.0
48.9030,23.0
48.9160,25.0
48.9290,25.0
48.9420,27.0
48.9550,24.0
48.9680,27.0
48.9810,28.0
48.9940,25.0
49.0070,28.0
49.0200,24.0
49.0330,27.0
49.0460,29.0
49.0590,21.0
49.0720,21.0
49.0850,34.0
49.0980,32.0
49.1110,32.0
49.1240,18.0
49.1370,20.0
49.1500,27.0
49.1630,29.0
49.1760,40.0
49.1890,26.0
49.2020,16.0
49.2150,28.0
49.2280,14.0
49.2410,24.0
49.2540,28.0
49.2670,23.0
49.2800,23.0
49.2930,24.0
49.3060,24.0
49.3190,20.0
49.3320,20.0
49.3450,24.0
49.3580,20.0
49.3710,16.0
49.3840,27.0
49.3970,25.0
49.4100,22.0
49.4230,23.0
49.4360,22.0
49.4490,23.0
49.4620,30.0
49.4750,35.0
49.4880,26.0
49.5010,34.0
49.5140,27.0
49.5270,26.0
49.5400,25.0
49.5530,26.0
49.5660,24.0
49.5790,31.0
49.5920,26.0
49.6050,32.0
49.6180,23.0
49.6310,26.0
49.6440,26.0
49.6570,35.0
49.6700,29.0
49.6830,22.0
49.6960,24.0
49.7090,23.0
49.7220,16.0
49.7350,20.0
49.7480,27.0
49.7610,26.0
49.7740,26.0
49.7870,22.0
49.8000,22.0
49.8130,25.0
49.8260,25.0
49.8390,26.0
49.8520,25.0
49.8650,24.0
49.8780,22.0
49.8910,23.0
49.9040,27.0
49.9170,31.0
49.9300,34.0
49.9430,27.0
49.9560,24.0
49.9690,23.0
49.9820,18.0
49.9950,22.0
50.0080,21.0
50.0210,18.0
50.0340,27.0
50.0470,32.0
50.0600,26.0
50.0730,26.0
50.0860,25.0
50.0990,23.0
50.1120,27.0
50.1250,27.0
50.1380,28.0
50.1510,32.0
50.1640,24.0
50.1770,24.0
50.1900,29.0
50.2030,24.0
50.2160,22.0
50.2290,22.0
50.2420,21.0
50.2550,29.0
50.2680,34.0
50.2810,31.0
50.2940,26.0
50.3070,29.0
50.3200,27.0
50.3330,20.0
50.3460,24.0
50.3590,21.0
50.3720,18.0
50.3850,22.0
50.3980,30.0
50.4110,25.0
50.4240,28.0
50.4370,28.0
50.4500,25.0
50.4630,28.0
50.4760,22.0
50.4890,30.0
50.5020,18.0
50.5150,25.0
50.5280,24.0
50.5410,24.0
50.5540,23.0
50.5670,23.0
50.5800,28.0
50.5930,18.0
50.6060,18.0
50.6190,18.0
50.6320,28.0
50.6450,30.0
50.6580,20.0
50.6710,30.0
50.6840,25.0
50.6970,28.0
50.7100,16.0
50.7230,16.0
50.7360,28.0
50.7490,25.0
50.7620,23.0
50.7750,24.0
50.7880,32.0
50.8010,26.0
50.8140,22.0
50.8270,22.0
50.8400,27.0
50.8530,26.0
50.8660,25.0
50.8790,23.0
50.8920,21.0
50.9050,25.0
50.9180,24.0
50.9310,29.0
50.9440,22.0
50.9570,26.0
50.9700,27.0
50.9830,26.0
50.9960,27.0
51.0090,24.0
51.0220,26.0
51.0350,24.0
51.0480,26.0
51.0610,26.0
51.0740,27.0
51.0870,22.0
51.1000,26.0
51.1130,23.0
51.1260,23.0
51.1390,32.0
51.1520,29.0
51.1650,32.0
51.1780,32.0
51.1910,22.0
51.2040,20.0
51.2170,20.0
51.2300,18.0
51.2430,22.0
51.2560,23.0
51.2690,25.0
51.2820,28.0
51.2950,28.0
51.3080,28.0
51.3210,27.0
51.3340,26.0
51.3470,27.0
51.3600,26.0
51.3730,31.0
51.3860,27.0
51.3990,24.0
51.4120,30.0
51.4250,27.0
51.4380,28.0
51.4510,32.0
51.4640,31.0
51.4770,33.0
51.4900,26.0
51.5030,20.0
51.5160,24.0
51.5290,23.0
51.5420,27.0
51.5550,27.0
51.5680,27.0
51.5810,25.0
51.5940,24.0
51.6070,23.0
51.6200,25.0
51.6330,26.0
51.6460,22.0
51.6590,24.0
51.6720,25.0
51.6850,27.0
51.6980,17.0
51.7110,24.0
51.7240,27.0
51.7370,31.0
51.7500,30.0
51.7630,30.0
51.7760,28.0
51.7890,22.0
51.8020,25.0
51.8150,20.0
51.8280,25.0
51.8410,22.0
51.8540,22.0
51.8670,21.0
51.8800,30.0
51.8930,30.0
51.9060,21.0
51.9190,23.0
51.9320,27.0
51.9450,19.0
51.9580,14.0
51.9710,17.0
51.9840,25.0
51.9970,25.0
52.0100,24.0
52.0230,24.0
52.0360,28.0
52.0490,26.0
52.0620,38.0
52.0750,35.0
52.0880,26.0
52.1010,27.0
52.1140,24.0
52.1270,28.0
52.1400,18.0
52.1530,24.0
52.1660,32.0
52.1790,27.0
52.1920,26.0
52.2050,20.0
52.2180,16.0
52.2310,22.0
52.2440,29.0
52.2570,27.0
52.2700,27.0
52.2830,18.0
52.2960,21.0
52.3090,24.0
52.3220,26.0
52.3350,27.0
52.3480,19.0
52.3610,22.0
52.3740,26.0
52.3870,28.0
52.4000,24.0
52.4130,18.0
52.4260,19.0
52.4390,26.0
52.4520,25.0
52.4650,21.0
52.4780,19.0
52.4910,27.0
52.5040,28.0
52.5170,22.0
52.5300,23.0
52.5430,22.0
52.5560,18.0
52.5690,19.0
52.5820,19.0
52.5950,24.0
52.6080,29.0
52.6210,28.0
52.6340,27.0
52.6470,27.0
52.6600,27.0
52.6730,22.0
52.6860,22.0
52.6990,27.0
52.7120,34.0
52.7250,34.0
52.7380,25.0
52.7510,20.0
52.7640,18.0
52.7770,19.0
52.7900,24.0
52.8030,18.0
52.8160,23.0
52.8290,22.0
52.8420,25.0
52.8550,25.0
52.8680,17.0
52.8810,22.0
52.8940,27.0
52.9070,23.0
52.9200,23.0
52.9330,21.0
52.9460,25.0
52.9590,24.0
52.9720,25.0
52.9850,28.0
52.9980,24.0
53.0110,31.0
53.0240,28.0
53.0370,29.0
53.0500,25.0
53.0630,23.0
53.0760,30.0
53.0890,22.0
53.1020,25.0
53.1150,17.0
53.1280,23.0
53.1410,26.0
53.1540,20.0
53.1670,19.0
53.1800,23.0
53.1930,32.0
53.2060,25.0
53.2190,27.0
53.2320,13.0
53.2450,19.0
53.2580,27.0
53.2710,29.0
53.2840,30.0
53.2970,24.0
53.3100,27.0
53.3230,19.0
53.3360,25.0
53.3490,24.0
53.3620,28.0
53.3750,30.0
53.3880,18.0
53.4010,25.0
53.4140,21.0
53.4270,21.0
53.4400,24.0
53.4530,22.0
53.4660,15.0
53.4790,19.0
53.4920,21.0
53.5050,18.0
53.5180,23.0
53.5310,29.0
53.5440,24.0
53.5570,16.0
53.5700,16.0
53.5830,21.0
53.5960,31.0
53.6090,26.0
53.6220,27.0
53.6350,29.0
53.6480,25.0
53.6610,23.0
53.6740,18.0
53.6870,16.0
53.7000,18.0
53.7130,27.0
53.7260,28.0
53.7390,24.0
53.7520,23.0
53.7650,21.0
53.7780,19.0
53.7910,26.0
53.8040,24.0
53.8170,16.0
53.8300,16.0
53.8430,22.0
53.8560,20.0
53.8690,20.0
53.8820,22.0
53.8950,20.0
53.9080,26.0
53.9210,30.0
53.9340,23.0
53.9470,18.0
53.9600,21.0
53.9730,21.0
53.9860,21.0
53.9990,27.0
54.0120,31.0
54.0250,31.0
54.0380,29.0
54.0510,31.0
54.0640,24.0
54.0770,18.0
54.0900,23.0
54.1030,27.0
54.1160,28.0
54.1290,26.0
54.1420,20.0
54.1550,26.0
54.1680,31.0
54.1810,26.0
54.1940,29.0
54.2070,20.0
54.2200,19.0
54.2330,21.0
54.2460,20.0
54.2590,29.0
54.2720,29.0
54.2850,30.0
54.2980,21.0
54.3110,20.0
54.3240,19.0
54.3370,23.0
54.3500,26.0
54.3630,27.0
54.3760,18.0
54.3890,19.0
54.4020,21.0
54.4150,20.0
54.4280,33.0
54.4410,17.0
54.4540,16.0
54.4670,13.0
54.4800,21.0
54.4930,29.0
54.5060,23.0
54.5190,32.0
54.5320,24.0
54.5450,15.0
54.5580,30.0
54.5710,33.0
54.5840,24.0
54.5970,23.0
54.6100,23.0
54.6230,30.0
54.6360,25.0
54.6490,30.0
54.6620,21.0
54.6750,25.0
54.6880,10.0
54.7010,22.0
54.7140,29.0
54.7270,28.0
54.7400,32.0
54.7530,25.0
54.7660,28.0
54.7790,36.0
54.7920,27.0
54.8050,24.0
54.8180,26.0
54.8310,25.0
54.8440,32.0
54.8570,28.0
54.8700,24.0
54.8830,19.0
54.8960,25.0
54.9090,22.0
54.9220,21.0
54.9350,25.0
54.9480,25.0
54.9610,22.0
54.9740,23.0
54.9870,27.0
55.0000,24.0
55.0130,23.0
55.0260,18.0
55.0390,20.0
55.0520,27.0
55.0650,25.0
55.0780,27.0
55.0910,33.0
55.1040,28.0
55.1170,18.0
55.1300,17.0
55.1430,23.0
55.1560,25.0
55.1690,28.0
55.1820,26.0
55.1950,19.0
55.2080,23.0
55.2210,25.0
55.2340,21.0
55.2470,27.0
55.2600,31.0
55.2730,26.0
55.2860,18.0
55.2990,16.0
55.3120,23.0
55.3250,29.0
55.3380,24.0
55.3510,23.0
55.3640,26.0
55.3770,24.0
55.3900,28.0
55.4030,29.0
55.4160,27.0
55.4290,24.0
55.4420,18.0
55.4550,20.0
55.4680,20.0
55.4810,24.0
55.4940,24.0
55.5070,19.0
55.5200,22.0
55.5330,25.0
55.5460,23.0
55.5590,20.0
55.5720,21.0
55.5850,31.0
55.5980,23.0
55.6110,25.0
55.6240,23.0
55.6370,28.0
55.6500,30.0
55.6630,31.0
55.6760,27.0
55.6890,20.0
55.7020,35.0
55.7150,28.0
55.7280,24.0
55.7410,22.0
55.7540,17.0
55.7670,23.0
55.7800,33.0
55.7930,28.0
55.8060,36.0
55.8190,18.0
55.8320,22.0
55.8450,21.0
55.8580,26.0
55.8710,22.0
55.8840,20.0
55.8970,20.0
55.9100,27.0
55.9230,20.0
55.9360,29.0
55.9490,25.0
55.9620,19.0
55.9750,25.0
55.9880,18.0
56.0010,14.0
56.0140,20.0
56.0270,32.0
56.0400,30.0
56.0530,20.0
56.0660,22.0
56.0790,25.0
56.0920,24.0
56.1050,28.0
56.1180,24.0
56.1310,22.0
56.1440,31.0
56.1570,34.0
56.1700,31.0
56.1830,24.0
56.1960,23.0
56.2090,21.0
56.2220,21.0
56.2350,27.0
56.2480,28.0
56.2610,30.0
56.2740,28.0
56.2870,31.0
56.3000,31.0
56.3130,27.0
56.3260,30.0
56.3390,26.0
56.3520,27.0
56.3650,31.0
56.3780,24.0
56.3910,25.0
56.4040,32.0
56.4170,26.0
56.4300,27.0
56.4430,42.0
56.4560,41.0
56.4690,28.0
56.4820,25.0
56.4950,32.0
56.5080,36.0
56.5210,36.0
56.5340,37.0
56.5470,36.0
56.5600,38.0
56.5730,38.0
56.5860,39.0
56.5990,41.0
56.6120,43.0
56.6250,49.0
56.6380,64.0
56.6510,76.0
56.6640,82.0
56.6770,85.0
56.6900,102.0
56.7030,120.0
56.7160,111.0
56.7290,110.0
56.7420,106.0
56.7550,92.0
56.7680,74.0
56.7810,59.0
56.7940,59.0
56.8070,66.0
56.8200,65.0
56.8330,69.0
56.8460,52.0
56.8590,75.0
56.8720,81.0
56.8850,65.0
56.8980,68.0
56.9110,62.0
56.9240,45.0
56.9370,31.0
56.9500,36.0
56.9630,45.0
56.9760,39.0
56.9890,31.0
57.0020,28.0
57.0150,30.0
57.0280,29.0
57.0410,20.0
57.0540,23.0
57.0670,20.0
57.0800,30.0
57.0930,23.0
57.1060,27.0
57.1190,29.0
57.1320,23.0
57.1450,22.0
57.1580,26.0
57.1710,32.0
57.1840,33.0
57.1970,30.0
57.2100,18.0
57.2230,36.0
57.2360,26.0
57.2490,27.0
57.2620,25.0
57.2750,27.0
57.2880,26.0
57.3010,21.0
57.3140,21.0
57.3270,32.0
57.3400,24.0
57.3530,31.0
57.3660,22.0
57.3790,23.0
57.3920,25.0
57.4050,23.0
57.4180,27.0
57.4310,27.0
57.4440,22.0
57.4570,19.0
57.4700,29.0
57.4830,24.0
57.4960,23.0
57.5090,25.0
57.5220,30.0
57.5350,21.0
57.5480,21.0
57.5610,27.0
57.5740,24.0
57.5870,22.0
57.6000,15.0
57.6130,18.0
57.6260,30.0
57.6390,30.0
57.6520,32.0
57.6650,31.0
57.6780,22.0
57.6910,17.0
57.7040,21.0
57.7170,25.0
57.7300,30.0
57.7430,36.0
57.7560,29.0
57.7690,20.0
57.7820,25.0
57.7950,28.0
57.8080,24.0
57.8210,20.0
57.8340,20.0
57.8470,21.0
57.8600,26.0
57.8730,28.0
57.8860,23.0
57.8990,20.0
57.9120,28.0
57.9250,33.0
57.9380,28.0
57.9510,23.0
57.9640,16.0
57.9770,17.0
57.9900,20.0
58.0030,23.0
58.0160,25.0
58.0290,25.0
58.0420,23.0
58.0550,24.0
58.0680,25.0
58.0810,24.0
58.0940,24.0
58.1070,21.0
58.1200,26.0
58.1330,18.0
58.1460,21.0
58.1590,22.0
58.1720,26.0
58.1850,17.0
58.1980,24.0
58.2110,23.0
58.2240,24.0
58.2370,26.0
58.2500,24.0
58.2630,27.0
58.2760,32.0
58.2890,23.0
58.3020,18.0
58.3150,18.0
58.3280,26.0
58.3410,25.0
58.3540,22.0
58.3670,26.0
58.3800,22.0
58.3930,31.0
58.4060,18.0
58.4190,24.0
58.4320,21.0
58.4450,22.0
58.4580,21.0
58.4710,19.0
58.4840,19.0
58.4970,29.0
58.5100,29.0
58.5230,19.0
58.5360,34.0
58.5490,25.0
58.5620,19.0
58.5750,33.0
58.5880,25.0
58.6010,26.0
58.6140,28.0
58.6270,28.0
58.6400,17.0
58.6530,27.0
58.6660,32.0
58.6790,22.0
58.6920,24.0
58.7050,24.0
58.7180,24.0
58.7310,20.0
58.7440,19.0
58.7570,21.0
58.7700,21.0
58.7830,23.0
58.7960,28.0
58.8090,28.0
58.8220,25.0
58.8350,24.0
58.8480,25.0
58.8610,29.0
58.8740,26.0
58.8870,19.0
58.9000,20.0
58.9130,27.0
58.9260,30.0
58.9390,29.0
58.9520,20.0
58.9650,19.0
58.9780,23.0
58.9910,26.0
59.0040,19.0
59.0170,20.0
59.0300,22.0
59.0430,18.0
59.0560,19.0
59.0690,22.0
59.0820,27.0
59.0950,26.0
59.1080,19.0
59.1210,24.0
59.1340,30.0
59.1470,29.0
59.1600,24.0
59.1730,26.0
59.1860,25.0
59.1990,15.0
59.2120,16.0
59.2250,17.0
59.2380,18.0
59.2510,23.0
59.2640,23.0
59.2770,24.0
59.2900,30.0
59.3030,31.0
59.3160,31.0
59.3290,32.0
59.3420,40.0
59.3550,47.0
59.3680,41.0
59.3810,44.0
59.3940,63.0
59.4070,66.0
59.4200,79.0
59.4330,73.0
59.4460,59.0
59.4590,58.0
59.4720,55.0
59.4850,42.0
59.4980,44.0
59.5110,43.0
59.5240,34.0
59.5370,41.0
59.5500,49.0
59.5630,54.0
59.5760,46.0
59.5890,55.0
59.6020,44.0
59.6150,41.0
59.6280,37.0
59.6410,30.0
59.6540,32.0
59.6670,21.0
59.6800,34.0
59.6930,27.0
59.7060,25.0
59.7190,29.0
59.7320,27.0
59.7450,29.0
59.7580,33.0
59.7710,29.0
59.7840,24.0
59.7970,26.0
59.8100,23.0
59.8230,32.0
59.8360,31.0
59.8490,25.0
59.8620,32.0
59.8750,28.0
59.8880,24.0
59.9010,24.0
59.9140,25.0
59.9270,25.0
59.9400,21.0
59.9530,29.0
59.9660,28.0
59.9790,28.0
59.9920,24.0
60.0050,26.0
60.0180,21.0
60.0310,21.0
60.0440,21.0
60.0570,23.0
60.0700,17.0
60.0830,20.0
60.0960,24.0
60.1090,16.0
60.1220,23.0
60.1350,31.0
60.1480,26.0
60.1610,22.0
60.1740,31.0
60.1870,31.0
60.2000,30.0
60.2130,24.0
60.2260,29.0
60.2390,27.0
60.2520,23.0
60.2650,19.0
60.2780,19.0
60.2910,26.0
60.3040,27.0
60.3170,24.0
60.3300,23.0
60.3430,24.0
60.3560,28.0
60.3690,26.0
60.3820,24.0
60.3950,24.0
60.4080,25.0
60.4210,26.0
60.4340,25.0
60.4470,26.0
60.4600,24.0
60.4730,21.0
60.4860,25.0
60.4990,27.0
60.5120,23.0
60.5250,21.0
60.5380,22.0
60.5510,22.0
60.5640,22.0
60.5770,23.0
60.5900,22.0
60.6030,20.0
60.6160,18.0
60.6290,23.0
60.6420,27.0
60.6550,27.0
60.6680,22.0
60.6810,22.0
60.6940,27.0
60.7070,28.0
60.7200,21.0
60.7330,20.0
60.7460,21.0
60.7590,23.0
60.7720,22.0
60.7850,23.0
60.7980,26.0
60.8110,32.0
60.8240,20.0
60.8370,28.0
60.8500,23.0
60.8630,18.0
60.8760,28.0
60.8890,33.0
60.9020,20.0
60.9150,21.0
60.9280,23.0
60.9410,25.0
60.9540,25.0
60.9670,33.0
60.9800,20.0
60.9930,17.0
61.0060,22.0
61.0190,22.0
61.0320,21.0
61.0450,28.0
61.0580,25.0
61.0710,27.0
61.0840,24.0
61.0970,19.0
61.1100,17.0
61.1230,20.0
61.1360,25.0
61.1490,15.0
61.1620,26.0
61.1750,22.0
61.1880,27.0
61.2010,18.0
61.2140,24.0
61.2270,24.0
61.2400,23.0
61.2530,24.0
61.2660,20.0
61.2790,21.0
61.2920,25.0
61.3050,26.0
61.3180,23.0
61.3310,31.0
61.3440,22.0
61.3570,17.0
61.3700,25.0
61.3830,25.0
61.3960,21.0
61.4090,20.0
61.4220,20.0
61.4350,16.0
61.4480,21.0
61.4610,23.0
61.4740,23.0
61.4870,26.0
61.5000,21.0
61.5130,21.0
61.5260,28.0
61.5390,22.0
61.5520,23.0
61.5650,19.0
61.5780,19.0
61.5910,26.0
61.6040,27.0
61.6170,26.0
61.6300,27.0
61.6430,26.0
61.6560,21.0
61.6690,22.0
61.6820,23.0
61.6950,26.0
61.7080,19.0
61.7210,21.0
61.7340,33.0
61.7470,32.0
61.7600,29.0
61.7730,23.0
61.7860,21.0
61.7990,26.0
61.8120,28.0
61.8250,28.0
61.8380,25.0
61.8510,26.0
61.8640,25.0
61.8770,25.0
61.8900,27.0
61.9030,27.0
61.9160,26.0
61.9290,27.0
61.9420,26.0
61.9550,21.0
61.9680,21.0
61.9810,22.0
61.9940,23.0
62.0070,18.0
62.0200,20.0
62.0330,35.0
62.0460,27.0
62.0590,24.0
62.0720,27.0
62.0850,25.0
62.0980,28.0
62.1110,24.0
62.1240,27.0
62.1370,29.0
62.1500,23.0
62.1630,21.0
62.1760,17.0
62.1890,21.0
62.2020,19.0
62.2150,23.0
62.2280,17.0
62.2410,19.0
62.2540,16.0
62.2670,23.0
62.2800,27.0
62.2930,25.0
62.3060,25.0
62.3190,26.0
62.3320,23.0
62.3450,32.0
62.3580,23.0
62.3710,18.0
62.3840,22.0
62.3970,27.0
62.4100,24.0
62.4230,23.0
62.4360,21.0
62.4490,22.0
62.4620,17.0
62.4750,23.0
62.4880,14.0
62.5010,20.0
62.5140,18.0
62.5270,30.0
62.5400,17.0
62.5530,24.0
62.5660,14.0
62.5790,18.0
62.5920,20.0
62.6050,24.0
62.6180,22.0
62.6310,26.0
62.6440,21.0
62.6570,30.0
62.6700,29.0
62.6830,27.0
62.6960,25.0
62.7090,24.0
62.7220,19.0
62.7350,22.0
62.7480,27.0
62.7610,27.0
62.7740,25.0
62.7870,26.0
62.8000,25.0
62.8130,21.0
62.8260,20.0
62.8390,22.0
62.8520,19.0
62.8650,17.0
62.8780,18.0
62.8910,20.0
62.9040,20.0
62.9170,20.0
62.9300,19.0
62.9430,20.0
62.9560,23.0
62.9690,19.0
62.9820,21.0
62.9950,29.0
63.0080,35.0
63.0210,25.0
63.0340,18.0
63.0470,25.0
63.0600,21.0
63.0730,17.0
63.0860,24.0
63.0990,26.0
63.1120,19.0
63.1250,21.0
63.1380,31.0
63.1510,24.0
63.1640,17.0
63.1770,20.0
63.1900,22.0
63.2030,23.0
63.2160,23.0
63.2290,22.0
63.2420,17.0
63.2550,24.0
63.2680,26.0
63.2810,28.0
63.2940,23.0
63.3070,24.0
63.3200,28.0
63.3330,24.0
63.3460,21.0
63.3590,19.0
63.3720,23.0
63.3850,21.0
63.3980,25.0
63.4110,25.0
63.4240,24.0
63.4370,24.0
63.4500,22.0
63.4630,25.0
63.4760,23.0
63.4890,18.0
63.5020,22.0
63.5150,27.0
63.5280,31.0
63.5410,26.0
63.5540,29.0
63.5670,26.0
63.5800,15.0
63.5930,28.0
63.6060,34.0
63.6190,28.0
63.6320,21.0
63.6450,18.0
63.6580,26.0
63.6710,34.0
63.6840,13.0
63.6970,17.0
63.7100,26.0
63.7230,30.0
63.7360,17.0
63.7490,29.0
63.7620,29.0
63.7750,22.0
63.7880,22.0
63.8010,20.0
63.8140,17.0
63.8270,35.0
63.8400,21.0
63.8530,23.0
63.8660,27.0
63.8790,20.0
63.8920,19.0
63.9050,27.0
63.9180,25.0
63.9310,23.0
63.9440,27.0
63.9570,23.0
63.9700,23.0
63.9830,23.0
63.9960,22.0
64.0090,22.0
64.0220,21.0
64.0350,21.0
64.0480,25.0
64.0610,20.0
64.0740,33.0
64.0870,25.0
64.1000,18.0
64.1130,22.0
64.1260,27.0
64.1390,26.0
64.1520,28.0
64.1650,27.0
64.1780,27.0
64.1910,25.0
64.2040,26.0
64.2170,33.0
64.2300,35.0
64.2430,26.0
64.2560,21.0
64.2690,26.0
64.2820,27.0
64.2950,21.0
64.3080,29.0
64.3210,30.0
64.3340,26.0
64.3470,25.0
64.3600,26.0
64.3730,30.0
64.3860,32.0
64.3990,31.0
64.4120,27.0
64.4250,23.0
64.4380,26.0
64.4510,27.0
64.4640,27.0
64.4770,26.0
64.4900,23.0
64.5030,23.0
64.5160,19.0
64.5290,24.0
64.5420,27.0
64.5550,17.0
64.5680,18.0
64.5810,25.0
64.5940,26.0
64.6070,22.0
64.6200,15.0
64.6330,22.0
64.6460,24.0
64.6590,24.0
64.6720,24.0
64.6850,26.0
64.6980,24.0
64.7110,21.0
64.7240,17.0
64.7370,27.0
64.7500,26.0
64.7630,21.0
64.7760,25.0
64.7890,31.0
64.8020,26.0
64.8150,25.0
64.8280,24.0
64.8410,31.0
64.8540,24.0
64.8670,33.0
64.8800,31.0
64.8930,31.0
64.9060,27.0
64.9190,36.0
64.9320,28.0
64.9450,15.0
64.9580,25.0
64.9710,28.0
64.9840,35.0
64.9970,24.0
65.0100,27.0
65.0230,23.0
65.0360,25.0
65.0490,30.0
65.0620,25.0
65.0750,23.0
65.0880,22.0
65.1010,17.0
65.1140,25.0
65.1270,33.0
65.1400,27.0
65.1530,24.0
65.1660,30.0
65.1790,22.0
65.1920,16.0
65.2050,24.0
65.2180,26.0
65.2310,18.0
65.2440,26.0
65.2570,20.0
65.2700,25.0
65.2830,23.0
65.2960,21.0
65.3090,23.0
65.3220,25.0
65.3350,22.0
65.3480,17.0
65.3610,28.0
65.3740,27.0
65.3870,18.0
65.4000,21.0
65.4130,21.0
65.4260,21.0
65.4390,20.0
65.4520,25.0
65.4650,28.0
65.4780,29.0
65.4910,27.0
65.5040,27.0
65.5170,23.0
65.5300,22.0
65.5430,24.0
65.5560,17.0
65.5690,21.0
65.5820,26.0
65.5950,25.0
65.6080,25.0
65.6210,23.0
65.6340,24.0
65.6470,25.0
65.6600,25.0
65.6730,27.0
65.6860,28.0
65.6990,31.0
65.7120,29.0
65.7250,25.0
65.7380,29.0
65.7510,28.0
65.7640,22.0
65.7770,17.0
65.7900,23.0
65.8030,25.0
65.8160,19.0
65.8290,21.0
65.8420,21.0
65.8550,22.0
65.8680,22.0
65.8810,25.0
65.8940,23.0
65.9070,21.0
65.9200,22.0
65.9330,24.0
65.9460,20.0
65.9590,20.0
65.9720,22.0
65.9850,15.0
65.9980,19.0
66.0110,17.0
66.0240,20.0
66.0370,25.0
66.0500,23.0
66.0630,19.0
66.0760,25.0
66.0890,30.0
66.1020,30.0
66.1150,29.0
66.1280,22.0
66.1410,19.0
66.1540,18.0
66.1670,29.0
66.1800,25.0
66.1930,16.0
66.2060,20.0
66.2190,19.0
66.2320,20.0
66.2450,31.0
66.2580,23.0
66.2710,32.0
66.2840,26.0
66.2970,27.0
66.3100,15.0
66.3230,24.0
66.3360,19.0
66.3490,17.0
66.3620,29.0
66.3750,28.0
66.3880,21.0
66.4010,26.0
66.4140,24.0
66.4270,24.0
66.4400,38.0
66.4530,19.0
66.4660,21.0
66.4790,23.0
66.4920,19.0
66.5050,19.0
66.5180,23.0
66.5310,21.0
66.5440,22.0
66.5570,23.0
66.5700,26.0
66.5830,25.0
66.5960,20.0
66.6090,16.0
66.6220,15.0
66.6350,19.0
66.6480,32.0
66.6610,24.0
66.6740,25.0
66.6870,29.0
66.7000,26.0
66.7130,27.0
66.7260,24.0
66.7390,22.0
66.7520,19.0
66.7650,28.0
66.7780,25.0
66.7910,25.0
66.8040,31.0
66.8170,29.0
66.8300,21.0
66.8430,20.0
66.8560,22.0
66.8690,18.0
66.8820,17.0
66.8950,25.0
66.9080,22.0
66.9210,20.0
66.9340,19.0
66.9470,19.0
66.9600,23.0
66.9730,26.0
66.9860,31.0
66.9990,33.0
67.0120,32.0
67.0250,26.0
67.0380,20.0
67.0510,25.0
67.0640,27.0
67.0770,26.0
67.0900,26.0
67.1030,31.0
67.1160,35.0
67.1290,26.0
67.1420,25.0
67.1550,32.0
67.1680,27.0
67.1810,27.0
67.1940,27.0
67.2070,35.0
67.2200,37.0
67.2330,33.0
67.2460,33.0
67.2590,37.0
67.2720,38.0
67.2850,30.0
67.2980,33.0
67.3110,34.0
67.3240,26.0
67.3370,36.0
67.3500,28.0
67.3630,42.0
67.3760,29.0
67.3890,28.0
67.4020,30.0
67.4150,30.0
67.4280,34.0
67.4410,36.0
67.4540,31.0
67.4670,38.0
67.4800,31.0
67.4930,27.0
67.5060,27.0
67.5190,29.0
67.5320,26.0
67.5450,29.0
67.5580,26.0
67.5710,22.0
67.5840,27.0
67.5970,22.0
67.6100,19.0
67.6230,24.0
67.6360,27.0
67.6490,39.0
67.6620,19.0
67.6750,30.0
67.6880,31.0
67.7010,26.0
67.7140,22.0
67.7270,22.0
67.7400,25.0
67.7530,28.0
67.7660,27.0
67.7790,20.0
67.7920,23.0
67.8050,25.0
67.8180,28.0
67.8310,16.0
67.8440,20.0
67.8570,19.0
67.8700,27.0
67.8830,21.0
67.8960,24.0
67.9090,23.0
67.9220,23.0
67.9350,29.0
67.9480,22.0
67.9610,25.0
67.9740,24.0
67.9870,21.0
68.0000,22.0
68.0130,19.0
68.0260,17.0
68.0390,19.0
68.0520,25.0
68.0650,28.0
68.0780,25.0
68.0910,21.0
68.1040,22.0
68.1170,24.0
68.1300,28.0
68.1430,21.0
68.1560,24.0
68.1690,28.0
68.1820,26.0
68.1950,25.0
68.2080,24.0
68.2210,24.0
68.2340,21.0
68.2470,20.0
68.2600,27.0
68.2730,28.0
68.2860,25.0
68.2990,29.0
68.3120,31.0
68.3250,26.0
68.3380,25.0
68.3510,24.0
68.3640,25.0
68.3770,29.0
68.3900,28.0
68.4030,27.0
68.4160,26.0
68.4290,23.0
68.4420,18.0
68.4550,18.0
68.4680,21.0
68.4810,24.0
68.4940,25.0
68.5070,26.0
68.5200,21.0
68.5330,18.0
68.5460,14.0
68.5590,19.0
68.5720,18.0
68.5850,25.0
68.5980,20.0
68.6110,17.0
68.6240,23.0
68.6370,29.0
68.6500,24.0
68.6630,26.0
68.6760,29.0
68.6890,31.0
68.7020,17.0
68.7150,18.0
68.7280,20.0
68.7410,21.0
68.7540,17.0
68.7670,25.0
68.7800,22.0
68.7930,18.0
68.8060,25.0
68.8190,27.0
68.8320,26.0
68.8450,27.0
68.8580,22.0
68.8710,20.0
68.8840,26.0
68.8970,29.0
68.9100,23.0
68.9230,20.0
68.9360,22.0
68.9490,21.0
68.9620,26.0
68.9750,21.0
68.9880,24.0
69.0010,18.0
69.0140,22.0
69.0270,21.0
69.0400,25.0
69.0530,32.0
69.0660,27.0
69.0790,24.0
69.0920,28.0
69.1050,35.0
69.1180,30.0
69.1310,21.0
69.1440,25.0
69.1570,16.0
69.1700,22.0
69.1830,20.0
69.1960,18.0
69.2090,23.0
69.2220,22.0
69.2350,20.0
69.2480,20.0
69.2610,26.0
69.2740,20.0
69.2870,18.0
69.3000,26.0
69.3130,22.0
69.3260,24.0
69.3390,25.0
69.3520,23.0
69.3650,22.0
69.3780,25.0
69.3910,24.0
69.4040,27.0
69.4170,27.0
69.4300,27.0
69.4430,19.0
69.4560,18.0
69.4690,23.0
69.4820,24.0
69.4950,20.0
69.5080,21.0
69.5210,31.0
69.5340,27.0
69.5470,20.0
69.5600,25.0
69.5730,26.0
69.5860,25.0
69.5990,25.0
69.6120,25.0
69.6250,21.0
69.6380,16.0
69.6510,16.0
69.6640,18.0
69.6770,22.0
69.6900,20.0
69.7030,19.0
69.7160,22.0
69.7290,22.0
69.7420,25.0
69.7550,22.0
69.7680,18.0
69.7810,21.0
69.7940,23.0
69.8070,24.0
69.8200,19.0
69.8330,23.0
69.8460,20.0
69.8590,15.0
69.8720,19.0
69.8850,19.0
69.8980,25.0
69.9110,20.0
69.9240,23.0
69.9370,24.0
69.9500,26.0
69.9630,26.0
69.9760,18.0
69.9890,23.0
70.0020,22.0
70.0150,28.0
70.0280,38.0
70.0410,17.0
70.0540,16.0
70.0670,23.0
70.0800,24.0
70.0930,23.0
70.1060,20.0
70.1190,26.0
70.1320,24.0
70.1450,16.0
70.1580,27.0
70.1710,19.0
70.1840,20.0
70.1970,25.0
70.2100,19.0
70.2230,29.0
70.2360,25.0
70.2490,21.0
70.2620,29.0
70.2750,20.0
70.2880,28.0
70.3010,24.0
70.3140,18.0
70.3270,18.0
70.3400,25.0
70.3530,31.0
70.3660,25.0
70.3790,19.0
70.3920,14.0
70.4050,13.0
70.4180,20.0
70.4310,21.0
70.4440,22.0
70.4570,22.0
70.4700,26.0
70.4830,29.0
70.4960,30.0
70.5090,25.0
70.5220,18.0
70.5350,17.0
70.5480,15.0
70.5610,23.0
70.5740,23.0
70.5870,27.0
70.6000,33.0
70.6130,30.0
70.6260,20.0
70.6390,21.0
70.6520,21.0
70.6650,23.0
70.6780,25.0
70.6910,22.0
70.7040,25.0
70.7170,27.0
70.7300,23.0
70.7430,18.0
70.7560,21.0
70.7690,24.0
70.7820,20.0
70.7950,22.0
70.8080,27.0
70.8210,22.0
70.8340,21.0
70.8470,25.0
70.8600,25.0
70.8730,23.0
70.8860,24.0
70.8990,21.0
70.9120,20.0
70.9250,28.0
70.9380,32.0
70.9510,25.0
70.9640,25.0
70.9770,26.0
70.9900,21.0
71.0030,21.0
71.0160,22.0
71.0290,21.0
71.0420,21.0
71.0550,18.0
71.0680,20.0
71.0810,22.0
71.0940,26.0
71.1070,29.0
71.1200,24.0
71.1330,19.0
71.1460,22.0
71.1590,27.0
71.1720,25.0
71.1850,25.0
71.1980,26.0
71.2110,24.0
71.2240,27.0
71.2370,23.0
71.2500,33.0
71.2630,24.0
71.2760,20.0
71.2890,25.0
71.3020,31.0
71.3150,26.0
71.3280,25.0
71.3410,27.0
71.3540,23.0
71.3670,28.0
71.3800,26.0
71.3930,29.0
71.4060,21.0
71.4190,19.0
71.4320,26.0
71.4450,23.0
71.4580,27.0
71.4710,28.0
71.4840,24.0
71.4970,20.0
71.5100,24.0
71.5230,27.0
71.5360,21.0
71.5490,18.0
71.5620,24.0
71.5750,26.0
71.5880,17.0
71.6010,24.0
71.6140,19.0
71.6270,17.0
71.6400,16.0
71.6530,31.0
71.6660,20.0
71.6790,29.0
71.6920,33.0
71.7050,29.0
71.7180,25.0
71.7310,24.0
71.7440,21.0
71.7570,21.0
71.7700,25.0
71.7830,37.0
71.7960,32.0
71.8090,32.0
71.8220,31.0
71.8350,22.0
71.8480,18.0
71.8610,31.0
71.8740,26.0
71.8870,19.0
71.9000,23.0
71.9130,23.0
71.9260,23.0
71.9390,23.0
71.9520,31.0
71.9650,36.0
71.9780,26.0
71.9910,24.0
72.0040,20.0
72.0170,21.0
72.0300,28.0
72.0430,21.0
72.0560,23.0
72.0690,22.0
72.0820,24.0
72.0950,27.0
72.1080,32.0
72.1210,30.0
72.1340,29.0
72.1470,34.0
72.1600,36.0
72.1730,35.0
72.1860,35.0
72.1990,39.0
72.2120,38.0
72.2250,33.0
72.2380,34.0
72.2510,34.0
72.2640,34.0
72.2770,37.0
72.2900,41.0
72.3030,46.0
72.3160,49.0
72.3290,45.0
72.3420,40.0
72.3550,45.0
72.3680,39.0
72.3810,36.0
72.3940,45.0
72.4070,44.0
72.4200,41.0
72.4330,46.0
72.4460,45.0
72.4590,36.0
72.4720,36.0
72.4850,34.0
72.4980,36.0
72.5110,45.0
72.5240,46.0
72.5370,39.0
72.5500,35.0
72.5630,29.0
72.5760,34.0
72.5890,36.0
72.6020,36.0
72.6150,34.0
72.6280,34.0
72.6410,30.0
72.6540,35.0
72.6670,28.0
72.6800,29.0
72.6930,21.0
72.7060,29.0
72.7190,29.0
72.7320,27.0
72.7450,28.0
72.7580,28.0
72.7710,26.0
72.7840,28.0
72.7970,28.0
72.8100,29.0
72.8230,26.0
72.8360,21.0
72.8490,23.0
72.8620,31.0
72.8750,22.0
72.8880,27.0
72.9010,17.0
72.9140,29.0
72.9270,26.0
72.9400,24.0
72.9530,25.0
72.9660,33.0
72.9790,28.0
72.9920,25.0
73.0050,26.0
73.0180,27.0
73.0310,36.0
73.0440,31.0
73.0570,24.0
73.0700,23.0
73.0830,35.0
73.0960,32.0
73.1090,18.0
73.1220,29.0
73.1350,28.0
73.1480,20.0
73.1610,20.0
73.1740,27.0
73.1870,24.0
73.2000,22.0
73.2130,20.0
73.2260,21.0
73.2390,18.0
73.2520,24.0
73.2650,22.0
73.2780,33.0
73.2910,41.0
73.3040,31.0
73.3170,18.0
73.3300,19.0
73.3430,25.0
73.3560,30.0
73.3690,30.0
73.3820,26.0
73.3950,22.0
73.4080,26.0
73.4210,31.0
73.4340,29.0
73.4470,31.0
73.4600,27.0
73.4730,19.0
73.4860,15.0
73.4990,17.0
73.5120,21.0
73.5250,23.0
73.5380,21.0
73.5510,21.0
73.5640,25.0
73.5770,23.0
73.5900,25.0
73.6030,22.0
73.6160,16.0
73.6290,25.0
73.6420,24.0
73.6550,22.0
73.6680,23.0
73.6810,19.0
73.6940,21.0
73.7070,24.0
73.7200,23.0
73.7330,21.0
73.7460,31.0
73.7590,31.0
73.7720,30.0
73.7850,30.0
73.7980,31.0
73.8110,24.0
73.8240,24.0
73.8370,25.0
73.8500,22.0
73.8630,17.0
73.8760,17.0
73.8890,15.0
73.9020,24.0
73.9150,31.0
73.9280,19.0
73.9410,24.0
73.9540,16.0
73.9670,26.0
73.9800,28.0
73.9930,18.0
74.0060,21.0
74.0190,20.0
74.0320,20.0
74.0450,18.0
74.0580,32.0
74.0710,25.0
74.0840,27.0
74.0970,15.0
74.1100,14.0
74.1230,27.0
74.1360,17.0
74.1490,22.0
74.1620,25.0
74.1750,25.0
74.1880,21.0
74.2010,19.0
74.2140,19.0
74.2270,20.0
74.2400,27.0
74.2530,28.0
74.2660,27.0
74.2790,19.0
74.2920,26.0
74.3050,24.0
74.3180,18.0
74.3310,29.0
74.3440,22.0
74.3570,24.0
74.3700,20.0
74.3830,28.0
74.3960,26.0
74.4090,25.0
74.4220,25.0
74.4350,14.0
74.4480,22.0
74.4610,30.0
74.4740,22.0
74.4870,18.0
74.5000,23.0
74.5130,24.0
74.5260,28.0
74.5390,30.0
74.5520,27.0
74.5650,16.0
74.5780,18.0
74.5910,21.0
74.6040,21.0
74.6170,23.0
74.6300,29.0
74.6430,24.0
74.6560,19.0
74.6690,21.0
74.6820,18.0
74.6950,19.0
74.7080,20.0
74.7210,29.0
74.7340,29.0
74.7470,24.0
74.7600,20.0
74.7730,20.0
74.7860,23.0
74.7990,19.0
74.8120,20.0
74.8250,27.0
74.8380,25.0
74.8510,21.0
74.8640,24.0
74.8770,25.0
74.8900,21.0
74.9030,21.0
74.9160,25.0
74.9290,20.0
74.9420,19.0
74.9550,23.0
74.9680,22.0
74.9810,26.0
74.9940,24.0
75.0070,24.0
75.0200,22.0
75.0330,19.0
75.0460,20.0
75.0590,22.0
75.0720,22.0
75.0850,21.0
75.0980,23.0
75.1110,21.0
75.1240,30.0
75.1370,27.0
75.1500,23.0
75.1630,32.0
75.1760,22.0
75.1890,20.0
75.2020,23.0
75.2150,20.0
75.2280,23.0
75.2410,17.0
75.2540,29.0
75.2670,26.0
75.2800,27.0
75.2930,34.0
75.3060,28.0
75.3190,23.0
75.3320,18.0
75.3450,21.0
75.3580,23.0
75.3710,19.0
75.3840,20.0
75.3970,20.0
75.4100,13.0
75.4230,18.0
75.4360,26.0
75.4490,27.0
75.4620,18.0
75.4750,16.0
75.4880,21.0
75.5010,22.0
75.5140,16.0
75.5270,27.0
75.5400,41.0
75.5530,23.0
75.5660,27.0
75.5790,22.0
75.5920,15.0
75.6050,20.0
75.6180,34.0
75.6310,23.0
75.6440,22.0
75.6570,20.0
75.6700,17.0
75.6830,19.0
75.6960,23.0
75.7090,31.0
75.7220,29.0
75.7350,26.0
75.7480,23.0
75.7610,26.0
75.7740,25.0
75.7870,19.0
75.8000,25.0
75.8130,27.0
75.8260,22.0
75.8390,26.0
75.8520,31.0
75.8650,25.0
75.8780,23.0
75.8910,25.0
75.9040,22.0
75.9170,26.0
75.9300,29.0
75.9430,24.0
75.9560,20.0
75.9690,22.0
75.9820,20.0
75.9950,26.0
76.0080,23.0
76.0210,20.0
76.0340,22.0
76.0470,19.0
76.0600,20.0
76.0730,26.0
76.0860,27.0
76.0990,27.0
76.1120,31.0
76.1250,27.0
76.1380,22.0
76.1510,23.0
76.1640,26.0
76.1770,28.0
76.1900,30.0
76.2030,25.0
76.2160,21.0
76.2290,21.0
76.2420,21.0
76.2550,22.0
76.2680,24.0
76.2810,22.0
76.2940,23.0
76.3070,25.0
76.3200,21.0
76.3330,17.0
76.3460,21.0
76.3590,21.0
76.3720,24.0
76.3850,22.0
76.3980,21.0
76.4110,23.0
76.4240,27.0
76.4370,26.0
76.4500,23.0
76.4630,21.0
76.4760,21.0
76.4890,25.0
76.5020,20.0
76.5150,23.0
76.5280,16.0
76.5410,20.0
76.5540,21.0
76.5670,20.0
76.5800,22.0
76.5930,21.0
76.6060,21.0
76.6190,33.0
76.6320,26.0
76.6450,25.0
76.6580,15.0
76.6710,12.0
76.6840,16.0
76.6970,19.0
76.7100,30.0
76.7230,32.0
76.7360,35.0
76.7490,19.0
76.7620,22.0
76.7750,21.0
76.7880,19.0
76.8010,31.0
76.8140,32.0
76.8270,21.0
76.8400,14.0
76.8530,21.0
76.8660,28.0
76.8790,28.0
76.8920,25.0
76.9050,24.0
76.9180,17.0
76.9310,17.0
76.9440,15.0
76.9570,16.0
76.9700,19.0
76.9830,21.0
76.9960,18.0
77.0090,22.0
77.0220,21.0
77.0350,24.0
77.0480,14.0
77.0610,28.0
77.0740,30.0
77.0870,31.0
77.1000,29.0
77.1130,22.0
77.1260,20.0
77.1390,21.0
77.1520,22.0
77.1650,27.0
77.1780,22.0
77.1910,17.0
77.2040,22.0
77.2170,20.0
77.2300,19.0
77.2430,20.0
77.2560,22.0
77.2690,28.0
77.2820,21.0
77.2950,22.0
77.3080,25.0
77.3210,25.0
77.3340,21.0
77.3470,19.0
77.3600,23.0
77.3730,30.0
77.3860,32.0
77.3990,29.0
77.4120,25.0
77.4250,19.0
77.4380,21.0
77.4510,25.0
77.4640,29.0
77.4770,26.0
77.4900,24.0
77.5030,28.0
77.5160,26.0
77.5290,22.0
77.5420,16.0
77.5550,20.0
77.5680,25.0
77.5810,29.0
77.5940,24.0
77.6070,20.0
77.6200,29.0
77.6330,33.0
77.6460,26.0
77.6590,21.0
77.6720,24.0
77.6850,20.0
77.6980,21.0
77.7110,23.0
77.7240,22.0
77.7370,19.0
77.7500,19.0
77.7630,16.0
77.7760,24.0
77.7890,24.0
77.8020,23.0
77.8150,25.0
77.8280,24.0
77.8410,27.0
77.8540,24.0
77.8670,31.0
77.8800,21.0
77.8930,19.0
77.9060,33.0
77.9190,25.0
77.9320,22.0
77.9450,31.0
77.9580,20.0
77.9710,25.0
77.9840,19.0
77.9970,29.0
78.0100,18.0
78.0230,18.0
78.0360,21.0
78.0490,24.0
78.0620,21.0
78.0750,23.0
78.0880,25.0
78.1010,20.0
78.1140,20.0
78.1270,21.0
78.1400,31.0
78.1530,19.0
78.1660,27.0
78.1790,31.0
78.1920,24.0
78.2050,25.0
78.2180,29.0
78.2310,23.0
78.2440,21.0
78.2570,18.0
78.2700,28.0
78.2830,30.0
78.2960,23.0
78.3090,23.0
78.3220,25.0
78.3350,17.0
78.3480,23.0
78.3610,21.0
78.3740,25.0
78.3870,20.0
78.4000,22.0
78.4130,25.0
78.4260,26.0
78.4390,22.0
78.4520,23.0
78.4650,23.0
78.4780,17.0
78.4910,22.0
78.5040,25.0
78.5170,22.0
78.5300,22.0
78.5430,15.0
78.5560,18.0
78.5690,20.0
78.5820,20.0
78.5950,22.0
78.6080,25.0
78.6210,20.0
78.6340,20.0
78.6470,21.0
78.6600,23.0
78.6730,23.0
78.6860,19.0
78.6990,19.0
78.7120,22.0
78.7250,26.0
78.7380,26.0
78.7510,29.0
78.7640,24.0
78.7770,18.0
78.7900,22.0
78.8030,24.0
78.8160,20.0
78.8290,17.0
78.8420,21.0
78.8550,22.0
78.8680,23.0
78.8810,26.0
78.8940,22.0
78.9070,20.0
78.9200,19.0
78.9330,16.0
78.9460,16.0
78.9590,19.0
78.9720,17.0
78.9850,18.0
78.9980,22.0
79.0110,23.0
79.0240,17.0
79.0370,18.0
79.0500,20.0
79.0630,25.0
79.0760,35.0
79.0890,22.0
79.1020,22.0
79.1150,24.0
79.1280,27.0
79.1410,20.0
79.1540,24.0
79.1670,22.0
79.1800,24.0
79.1930,25.0
79.2060,26.0
79.2190,22.0
79.2320,24.0
79.2450,24.0
79.2580,19.0
79.2710,18.0
79.2840,22.0
79.2970,26.0
79.3100,24.0
79.3230,21.0
79.3360,24.0
79.3490,14.0
79.3620,25.0
79.3750,19.0
79.3880,33.0
79.4010,16.0
79.4140,26.0
79.4270,17.0
79.4400,27.0
79.4530,32.0
79.4660,28.0
79.4790,20.0
79.4920,18.0
79.5050,25.0
79.5180,22.0
79.5310,18.0
79.5440,18.0
79.5570,19.0
79.5700,15.0
79.5830,22.0
79.5960,23.0
79.6090,20.0
79.6220,30.0
79.6350,29.0
79.6480,28.0
79.6610,13.0
79.6740,22.0
79.6870,23.0
79.7000,25.0
79.7130,32.0
79.7260,32.0
79.7390,26.0
79.7520,23.0
79.7650,26.0
79.7780,24.0
79.7910,24.0
79.8040,27.0
79.8170,19.0
79.8300,21.0
79.8430,17.0
79.8560,17.0
79.8690,23.0
79.8820,20.0
79.8950,21.0
79.9080,23.0
79.9210,24.0
79.9340,24.0
79.9470,26.0
79.9600,26.0
79.9730,24.0
79.9860,27.0
