#PWDR MnO2_Unmilled_Air_InitialScan.xrdml Scan 1 Peak List 
#wavelength =   1.540600
#      pos        dsp        esd          int        esd        sig        gam       FWHM
    9.9959    8.84185    0.00000      1226.00       0.00    0.00010    0.00000    0.00000 
   10.0221    8.81874    0.00000      1290.00       0.00    0.00010    0.00000    0.00000 
   10.0746    8.77288    0.00000      1306.00       0.00    0.00010    0.00000    0.00000 
   10.1009    8.75013    0.00000      1290.00       0.00    0.00010    0.00000    0.00000 
   10.1403    8.71623    0.00000      1257.00       0.00    0.00010    0.00000    0.00000 
   10.1797    8.68259    0.00000      1293.00       0.00    0.00010    0.00000    0.00000 
   10.2322    8.63814    0.00000      1304.00       0.00    0.00010    0.00000    0.00000 
   10.2847    8.59415    0.00000      1262.00       0.00    0.00010    0.00000    0.00000 
   10.3110    8.57232    0.00000      1259.00       0.00    0.00010    0.00000    0.00000 
   10.3373    8.55060    0.00000      1269.00       0.00    0.00010    0.00000    0.00000 
   10.3766    8.51823    0.00000      1281.00       0.00    0.00010    0.00000    0.00000 
   10.4029    8.49679    0.00000      1260.00       0.00    0.00010    0.00000    0.00000 
   10.4292    8.47545    0.00000      1266.00       0.00    0.00010    0.00000    0.00000 
   10.4554    8.45422    0.00000      1272.00       0.00    0.00010    0.00000    0.00000 
   10.4817    8.43310    0.00000      1251.00       0.00    0.00010    0.00000    0.00000 
   10.5079    8.41208    0.00000      1233.00       0.00    0.00010    0.00000    0.00000 
   10.5605    8.37036    0.00000      1321.00       0.00    0.00010    0.00000    0.00000 
   10.5999    8.33935    0.00000      1260.00       0.00    0.00010    0.00000    0.00000 
   10.6261    8.31880    0.00000      1327.00       0.00    0.00010    0.00000    0.00000 
   10.6524    8.29835    0.00000      1252.00       0.00    0.00010    0.00000    0.00000 
   10.7049    8.25775    0.00000      1235.00       0.00    0.00010    0.00000    0.00000 
   10.7443    8.22756    0.00000      1263.00       0.00    0.00010    0.00000    0.00000 
   10.7837    8.19760    0.00000      1230.00       0.00    0.00010    0.00000    0.00000 
   10.8231    8.16785    0.00000      1312.00       0.00    0.00010    0.00000    0.00000 
   10.9019    8.10900    0.00000      1272.00       0.00    0.00010    0.00000    0.00000 
   10.9412    8.07990    0.00000      1315.00       0.00    0.00010    0.00000    0.00000 
   10.9938    8.04141    0.00000      1176.00       0.00    0.00010    0.00000    0.00000 
   11.0200    8.02231    0.00000      1239.00       0.00    0.00010    0.00000    0.00000 
   11.0463    8.00330    0.00000      1261.00       0.00    0.00010    0.00000    0.00000 
   11.0725    7.98438    0.00000      1285.00       0.00    0.00010    0.00000    0.00000 
   11.0988    7.96554    0.00000      1364.00       0.00    0.00010    0.00000    0.00000 
   11.1382    7.93746    0.00000      1253.00       0.00    0.00010    0.00000    0.00000 
   11.1645    7.91885    0.00000      1241.00       0.00    0.00010    0.00000    0.00000 
   11.2301    7.87270    0.00000      1297.00       0.00    0.00010    0.00000    0.00000 
   11.3220    7.80900    0.00000      1241.00       0.00    0.00010    0.00000    0.00000 
   11.3614    7.78201    0.00000      1270.00       0.00    0.00010    0.00000    0.00000 
   11.4008    7.75521    0.00000      1247.00       0.00    0.00010    0.00000    0.00000 
   11.4402    7.72860    0.00000      1266.00       0.00    0.00010    0.00000    0.00000 
   11.4665    7.71096    0.00000      1278.00       0.00    0.00010    0.00000    0.00000 
   11.5190    7.67592    0.00000      1235.00       0.00    0.00010    0.00000    0.00000 
   11.5715    7.64119    0.00000      1301.00       0.00    0.00010    0.00000    0.00000 
   11.6240    7.60679    0.00000      1224.00       0.00    0.00010    0.00000    0.00000 
   11.6634    7.58118    0.00000      1270.00       0.00    0.00010    0.00000    0.00000 
   11.7159    7.54732    0.00000      1280.00       0.00    0.00010    0.00000    0.00000 
   11.7422    7.53050    0.00000      1295.00       0.00    0.00010    0.00000    0.00000 
   11.7685    7.51375    0.00000      1241.00       0.00    0.00010    0.00000    0.00000 
   11.8078    7.48877    0.00000      1230.00       0.00    0.00010    0.00000    0.00000 
   11.8472    7.46396    0.00000      1241.00       0.00    0.00010    0.00000    0.00000 
   11.8866    7.43932    0.00000      1276.00       0.00    0.00010    0.00000    0.00000 
   11.9523    7.39860    0.00000      1285.00       0.00    0.00010    0.00000    0.00000 
   12.0311    7.35033    0.00000      1227.00       0.00    0.00010    0.00000    0.00000 
   12.0704    7.32643    0.00000      1244.00       0.00    0.00010    0.00000    0.00000 
   12.0967    7.31059    0.00000      1240.00       0.00    0.00010    0.00000    0.00000 
   12.1492    7.27910    0.00000      1217.00       0.00    0.00010    0.00000    0.00000 
   12.1886    7.25566    0.00000      1236.00       0.00    0.00010    0.00000    0.00000 
   12.2149    7.24012    0.00000      1205.00       0.00    0.00010    0.00000    0.00000 
   12.2411    7.22465    0.00000      1233.00       0.00    0.00010    0.00000    0.00000 
   12.2674    7.20924    0.00000      1217.00       0.00    0.00010    0.00000    0.00000 
   12.3068    7.18626    0.00000      1284.00       0.00    0.00010    0.00000    0.00000 
   12.3462    7.16342    0.00000      1247.00       0.00    0.00010    0.00000    0.00000 
   12.3856    7.14072    0.00000      1242.00       0.00    0.00010    0.00000    0.00000 
   12.4775    7.08833    0.00000      1277.00       0.00    0.00010    0.00000    0.00000 
   12.5169    7.06611    0.00000      1219.00       0.00    0.00010    0.00000    0.00000 
   12.5431    7.05138    0.00000      1271.00       0.00    0.00010    0.00000    0.00000 
   12.6088    7.01481    0.00000      1206.00       0.00    0.00010    0.00000    0.00000 
   12.6351    7.00029    0.00000      1216.00       0.00    0.00010    0.00000    0.00000 
   12.6876    6.97143    0.00000      1260.00       0.00    0.00010    0.00000    0.00000 
   12.7401    6.94280    0.00000      1238.00       0.00    0.00010    0.00000    0.00000 
   12.7795    6.92149    0.00000      1224.00       0.00    0.00010    0.00000    0.00000 
   12.8189    6.90031    0.00000      1222.00       0.00    0.00010    0.00000    0.00000 
   12.8583    6.87926    0.00000      1229.00       0.00    0.00010    0.00000    0.00000 
   12.9370    6.83755    0.00000      1219.00       0.00    0.00010    0.00000    0.00000 
   12.9764    6.81688    0.00000      1218.00       0.00    0.00010    0.00000    0.00000 
   13.0421    6.78271    0.00000      1187.00       0.00    0.00010    0.00000    0.00000 
   13.1077    6.74889    0.00000      1216.00       0.00    0.00010    0.00000    0.00000 
   13.1734    6.71540    0.00000      1143.00       0.00    0.00010    0.00000    0.00000 
   13.1997    6.70210    0.00000      1097.00       0.00    0.00010    0.00000    0.00000 
   13.2390    6.68225    0.00000      1197.00       0.00    0.00010    0.00000    0.00000 
   13.2653    6.66908    0.00000      1213.00       0.00    0.00010    0.00000    0.00000 
   13.3178    6.64289    0.00000      1163.00       0.00    0.00010    0.00000    0.00000 
   13.3703    6.61692    0.00000      1203.00       0.00    0.00010    0.00000    0.00000 
   13.3966    6.60400    0.00000      1136.00       0.00    0.00010    0.00000    0.00000 
   13.4360    6.58473    0.00000      1161.00       0.00    0.00010    0.00000    0.00000 
   13.4623    6.57195    0.00000      1190.00       0.00    0.00010    0.00000    0.00000 
   13.5017    6.55286    0.00000      1178.00       0.00    0.00010    0.00000    0.00000 
   13.5542    6.52759    0.00000      1212.00       0.00    0.00010    0.00000    0.00000 
   13.6067    6.50251    0.00000      1187.00       0.00    0.00010    0.00000    0.00000 
   13.6592    6.47762    0.00000      1154.00       0.00    0.00010    0.00000    0.00000 
   13.6986    6.45909    0.00000      1164.00       0.00    0.00010    0.00000    0.00000 
   13.7511    6.43453    0.00000      1188.00       0.00    0.00010    0.00000    0.00000 
   13.7774    6.42233    0.00000      1155.00       0.00    0.00010    0.00000    0.00000 
   13.8036    6.41017    0.00000      1120.00       0.00    0.00010    0.00000    0.00000 
   13.8299    6.39806    0.00000      1147.00       0.00    0.00010    0.00000    0.00000 
   13.8956    6.36798    0.00000      1194.00       0.00    0.00010    0.00000    0.00000 
   13.9349    6.35006    0.00000      1144.00       0.00    0.00010    0.00000    0.00000 
   14.0006    6.32043    0.00000      1151.00       0.00    0.00010    0.00000    0.00000 
   14.0400    6.30279    0.00000      1132.00       0.00    0.00010    0.00000    0.00000 
   14.0794    6.28524    0.00000      1126.00       0.00    0.00010    0.00000    0.00000 
   14.1319    6.26200    0.00000      1148.00       0.00    0.00010    0.00000    0.00000 
   14.1582    6.25045    0.00000      1105.00       0.00    0.00010    0.00000    0.00000 
   14.2369    6.21604    0.00000      1144.00       0.00    0.00010    0.00000    0.00000 
   14.3157    6.18200    0.00000      1124.00       0.00    0.00010    0.00000    0.00000 
   14.3420    6.17074    0.00000      1145.00       0.00    0.00010    0.00000    0.00000 
   14.3945    6.14835    0.00000      1105.00       0.00    0.00010    0.00000    0.00000 
   14.4470    6.12611    0.00000      1093.00       0.00    0.00010    0.00000    0.00000 
   14.4733    6.11506    0.00000      1100.00       0.00    0.00010    0.00000    0.00000 
   14.5127    6.09855    0.00000      1106.00       0.00    0.00010    0.00000    0.00000 
   14.5389    6.08759    0.00000      1093.00       0.00    0.00010    0.00000    0.00000 
   14.5783    6.07123    0.00000      1086.00       0.00    0.00010    0.00000    0.00000 
   14.6309    6.04955    0.00000      1094.00       0.00    0.00010    0.00000    0.00000 
   14.6571    6.03878    0.00000      1122.00       0.00    0.00010    0.00000    0.00000 
   14.6965    6.02268    0.00000      1101.00       0.00    0.00010    0.00000    0.00000 
   14.7622    5.99604    0.00000      1104.00       0.00    0.00010    0.00000    0.00000 
   14.7884    5.98545    0.00000      1065.00       0.00    0.00010    0.00000    0.00000 
   14.8147    5.97490    0.00000      1016.00       0.00    0.00010    0.00000    0.00000 
   14.8409    5.96439    0.00000      1102.00       0.00    0.00010    0.00000    0.00000 
   14.8672    5.95391    0.00000      1105.00       0.00    0.00010    0.00000    0.00000 
   14.9066    5.93827    0.00000      1080.00       0.00    0.00010    0.00000    0.00000 
   14.9460    5.92271    0.00000      1097.00       0.00    0.00010    0.00000    0.00000 
   14.9722    5.91238    0.00000      1106.00       0.00    0.00010    0.00000    0.00000 
   15.0116    5.89695    0.00000      1020.00       0.00    0.00010    0.00000    0.00000 
   15.0773    5.87142    0.00000      1084.00       0.00    0.00010    0.00000    0.00000 
   15.1298    5.85116    0.00000      1057.00       0.00    0.00010    0.00000    0.00000 
   15.1692    5.83605    0.00000      1034.00       0.00    0.00010    0.00000    0.00000 
   15.2217    5.81603    0.00000      1080.00       0.00    0.00010    0.00000    0.00000 
   15.2480    5.80607    0.00000      1046.00       0.00    0.00010    0.00000    0.00000 
   15.2874    5.79120    0.00000      1063.00       0.00    0.00010    0.00000    0.00000 
   15.3399    5.77149    0.00000       998.00       0.00    0.00010    0.00000    0.00000 
   15.3793    5.75680    0.00000      1059.00       0.00    0.00010    0.00000    0.00000 
   15.4055    5.74704    0.00000      1058.00       0.00    0.00010    0.00000    0.00000 
   15.4449    5.73248    0.00000      1019.00       0.00    0.00010    0.00000    0.00000 
   15.4712    5.72280    0.00000      1056.00       0.00    0.00010    0.00000    0.00000 
   15.5106    5.70836    0.00000      1024.00       0.00    0.00010    0.00000    0.00000 
   15.5368    5.69877    0.00000      1065.00       0.00    0.00010    0.00000    0.00000 
   15.5894    5.67969    0.00000       983.00       0.00    0.00010    0.00000    0.00000 
   15.6288    5.66546    0.00000      1061.00       0.00    0.00010    0.00000    0.00000 
   15.7075    5.63722    0.00000       996.00       0.00    0.00010    0.00000    0.00000 
   15.7338    5.62787    0.00000      1059.00       0.00    0.00010    0.00000    0.00000 
   15.7732    5.61391    0.00000      1007.00       0.00    0.00010    0.00000    0.00000 
   15.7995    5.60464    0.00000      1003.00       0.00    0.00010    0.00000    0.00000 
   15.8520    5.58618    0.00000      1013.00       0.00    0.00010    0.00000    0.00000 
   15.9045    5.56786    0.00000      1041.00       0.00    0.00010    0.00000    0.00000 
   15.9701    5.54511    0.00000      1037.00       0.00    0.00010    0.00000    0.00000 
   16.0095    5.53156    0.00000      1044.00       0.00    0.00010    0.00000    0.00000 
   16.0621    5.51359    0.00000      1061.00       0.00    0.00010    0.00000    0.00000 
   16.1014    5.50019    0.00000      1033.00       0.00    0.00010    0.00000    0.00000 
   16.1277    5.49129    0.00000       971.00       0.00    0.00010    0.00000    0.00000 
   16.1671    5.47800    0.00000      1041.00       0.00    0.00010    0.00000    0.00000 
   16.2065    5.46478    0.00000      1025.00       0.00    0.00010    0.00000    0.00000 
   16.2459    5.45161    0.00000       979.00       0.00    0.00010    0.00000    0.00000 
   16.2721    5.44288    0.00000      1000.00       0.00    0.00010    0.00000    0.00000 
   16.3115    5.42982    0.00000      1053.00       0.00    0.00010    0.00000    0.00000 
   16.3641    5.41251    0.00000      1000.00       0.00    0.00010    0.00000    0.00000 
   16.4034    5.39960    0.00000      1014.00       0.00    0.00010    0.00000    0.00000 
   16.4560    5.38249    0.00000       997.00       0.00    0.00010    0.00000    0.00000 
   16.4954    5.36972    0.00000      1028.00       0.00    0.00010    0.00000    0.00000 
   16.5741    5.34437    0.00000       994.00       0.00    0.00010    0.00000    0.00000 
   16.6135    5.33179    0.00000       988.00       0.00    0.00010    0.00000    0.00000 
   16.6529    5.31927    0.00000       990.00       0.00    0.00010    0.00000    0.00000 
   16.6923    5.30680    0.00000       998.00       0.00    0.00010    0.00000    0.00000 
   16.7580    5.28616    0.00000      1012.00       0.00    0.00010    0.00000    0.00000 
   16.7974    5.27385    0.00000       964.00       0.00    0.00010    0.00000    0.00000 
   16.8499    5.25753    0.00000      1025.00       0.00    0.00010    0.00000    0.00000 
   16.8893    5.24536    0.00000      1025.00       0.00    0.00010    0.00000    0.00000 
   16.9549    5.22520    0.00000       990.00       0.00    0.00010    0.00000    0.00000 
   16.9943    5.21317    0.00000      1010.00       0.00    0.00010    0.00000    0.00000 
   17.0600    5.19326    0.00000      1003.00       0.00    0.00010    0.00000    0.00000 
   17.1387    5.16957    0.00000       964.00       0.00    0.00010    0.00000    0.00000 
   17.1913    5.15389    0.00000       986.00       0.00    0.00010    0.00000    0.00000 
   17.2438    5.13831    0.00000       974.00       0.00    0.00010    0.00000    0.00000 
   17.2700    5.13056    0.00000       980.00       0.00    0.00010    0.00000    0.00000 
   17.2963    5.12283    0.00000       951.00       0.00    0.00010    0.00000    0.00000 
   17.3357    5.11127    0.00000      1031.00       0.00    0.00010    0.00000    0.00000 
   17.3882    5.09595    0.00000       987.00       0.00    0.00010    0.00000    0.00000 
   17.4539    5.07693    0.00000       973.00       0.00    0.00010    0.00000    0.00000 
   17.5064    5.06182    0.00000       955.00       0.00    0.00010    0.00000    0.00000 
   17.5589    5.04680    0.00000       957.00       0.00    0.00010    0.00000    0.00000 
   17.6114    5.03186    0.00000       953.00       0.00    0.00010    0.00000    0.00000 
   17.6377    5.02443    0.00000       963.00       0.00    0.00010    0.00000    0.00000 
   17.6771    5.01332    0.00000       956.00       0.00    0.00010    0.00000    0.00000 
   17.7033    5.00595    0.00000       934.00       0.00    0.00010    0.00000    0.00000 
   17.7690    4.98760    0.00000       992.00       0.00    0.00010    0.00000    0.00000 
   17.8084    4.97666    0.00000       970.00       0.00    0.00010    0.00000    0.00000 
   17.8478    4.96576    0.00000       967.00       0.00    0.00010    0.00000    0.00000 
   17.8740    4.95852    0.00000       982.00       0.00    0.00010    0.00000    0.00000 
   17.9003    4.95131    0.00000       996.00       0.00    0.00010    0.00000    0.00000 
   17.9397    4.94053    0.00000       938.00       0.00    0.00010    0.00000    0.00000 
   18.0053    4.92266    0.00000       941.00       0.00    0.00010    0.00000    0.00000 
   18.0447    4.91200    0.00000       921.00       0.00    0.00010    0.00000    0.00000 
   18.0841    4.90139    0.00000       921.00       0.00    0.00010    0.00000    0.00000 
   18.1235    4.89083    0.00000       923.00       0.00    0.00010    0.00000    0.00000 
   18.1760    4.87681    0.00000       964.00       0.00    0.00010    0.00000    0.00000 
   18.2286    4.86288    0.00000       951.00       0.00    0.00010    0.00000    0.00000 
   18.2679    4.85248    0.00000       948.00       0.00    0.00010    0.00000    0.00000 
   18.3205    4.83869    0.00000       934.00       0.00    0.00010    0.00000    0.00000 
   18.3599    4.82840    0.00000       952.00       0.00    0.00010    0.00000    0.00000 
   18.4255    4.81134    0.00000       993.00       0.00    0.00010    0.00000    0.00000 
   18.4518    4.80455    0.00000       900.00       0.00    0.00010    0.00000    0.00000 
   18.4780    4.79778    0.00000       931.00       0.00    0.00010    0.00000    0.00000 
   18.5174    4.78767    0.00000       952.00       0.00    0.00010    0.00000    0.00000 
   18.5568    4.77759    0.00000       967.00       0.00    0.00010    0.00000    0.00000 
   18.5962    4.76756    0.00000       917.00       0.00    0.00010    0.00000    0.00000 
   18.6487    4.75425    0.00000       926.00       0.00    0.00010    0.00000    0.00000 
   18.7012    4.74102    0.00000       888.00       0.00    0.00010    0.00000    0.00000 
   18.7538    4.72786    0.00000       925.00       0.00    0.00010    0.00000    0.00000 
   18.7800    4.72131    0.00000       883.00       0.00    0.00010    0.00000    0.00000 
   18.8063    4.71477    0.00000       917.00       0.00    0.00010    0.00000    0.00000 
   18.8457    4.70501    0.00000       937.00       0.00    0.00010    0.00000    0.00000 
   18.8982    4.69205    0.00000       934.00       0.00    0.00010    0.00000    0.00000 
   18.9638    4.67595    0.00000       964.00       0.00    0.00010    0.00000    0.00000 
   19.0164    4.66316    0.00000       922.00       0.00    0.00010    0.00000    0.00000 
   19.0426    4.65679    0.00000       920.00       0.00    0.00010    0.00000    0.00000 
   19.0689    4.65043    0.00000       882.00       0.00    0.00010    0.00000    0.00000 
   19.1083    4.64093    0.00000       897.00       0.00    0.00010    0.00000    0.00000 
   19.1739    4.62519    0.00000       911.00       0.00    0.00010    0.00000    0.00000 
   19.2133    4.61580    0.00000       930.00       0.00    0.00010    0.00000    0.00000 
   19.2527    4.60644    0.00000       935.00       0.00    0.00010    0.00000    0.00000 
